Raw EMG - Pod01,Raw EMG - Pod02,Raw EMG - Pod03,Raw EMG - Pod04,Raw EMG - Pod05,Raw EMG - Pod06,Raw EMG - Pod07,Raw EMG - Pod08,Timestamp
-3,-4,-4,-3,-8,-5,1,-1,2025-02-19 14:37:09.935
-3,-4,-4,-3,-8,-5,1,-1,2025-02-19 14:37:09.946
-2,-3,1,1,-8,-2,-2,-1,2025-02-19 14:37:09.959
-2,-3,1,1,-8,-2,-2,-1,2025-02-19 14:37:09.968
-1,-3,-4,-2,-9,-8,-5,-2,2025-02-19 14:37:09.980
-2,0,1,-2,-9,8,-2,-2,2025-02-19 14:37:09.991
-2,0,1,-2,-9,8,-2,-2,2025-02-19 14:37:10.004
0,0,-2,-2,-9,-13,-3,-1,2025-02-19 14:37:10.020
0,0,-2,-2,-9,-13,-3,-1,2025-02-19 14:37:10.025
-1,-1,-3,1,-8,21,-4,1,2025-02-19 14:37:10.036
-1,-1,-3,1,-8,21,-4,1,2025-02-19 14:37:10.047
-1,-2,-1,-4,-10,-5,-3,-2,2025-02-19 14:37:10.058
-1,-2,-1,-4,-10,-5,-3,-2,2025-02-19 14:37:10.070
-2,-2,-1,0,-8,-1,-3,0,2025-02-19 14:37:10.081
-2,-2,-1,0,-8,-1,-3,0,2025-02-19 14:37:10.092
1,-1,0,0,-7,-5,1,0,2025-02-19 14:37:10.103
0,-2,-1,0,-8,0,-2,2,2025-02-19 14:37:10.118
0,-2,-1,0,-8,0,-2,2,2025-02-19 14:37:10.125
-2,-2,-2,-2,-8,3,-7,-3,2025-02-19 14:37:10.136
-2,-2,-2,-2,-8,3,-7,-3,2025-02-19 14:37:10.148
1,1,-1,0,-6,-19,3,-1,2025-02-19 14:37:10.159
-3,0,0,0,-7,2,-1,-2,2025-02-19 14:37:10.170
-3,0,0,0,-7,2,-1,-2,2025-02-19 14:37:10.182
0,-1,-2,-4,-8,-1,1,1,2025-02-19 14:37:10.193
0,-1,-2,-4,-8,-1,1,1,2025-02-19 14:37:10.204
0,0,-2,0,-8,6,-6,-2,2025-02-19 14:37:10.215
-2,-2,-1,-1,-7,9,2,-2,2025-02-19 14:37:10.229
-2,-2,-1,-1,-7,9,2,-2,2025-02-19 14:37:10.237
-2,-2,-1,-1,-7,9,2,-2,2025-02-19 14:37:10.248
-2,-2,-2,-1,-9,-4,1,-3,2025-02-19 14:37:10.259
-2,-2,-2,-1,-9,-4,1,-3,2025-02-19 14:37:10.273
-1,-2,0,-1,-8,-17,-4,-3,2025-02-19 14:37:10.281
-2,-3,-3,-3,-9,-2,2,-4,2025-02-19 14:37:10.293
1,-1,-3,0,-7,3,-2,-1,2025-02-19 14:37:10.304
-1,0,0,-1,-8,-7,0,-1,2025-02-19 14:37:10.316
-1,0,0,-1,-8,-7,0,-1,2025-02-19 14:37:10.330
-1,0,0,-1,-8,-7,0,-1,2025-02-19 14:37:10.338
0,-1,2,1,-9,-1,2,-1,2025-02-19 14:37:10.348
-3,0,1,-3,-9,1,0,-2,2025-02-19 14:37:10.360
-2,-2,-1,-4,-8,0,1,-2,2025-02-19 14:37:10.371
-1,0,0,-1,-7,4,0,0,2025-02-19 14:37:10.385
-2,-2,-3,-1,-8,8,-4,-1,2025-02-19 14:37:10.396
-2,-2,-3,-1,-8,8,-4,-1,2025-02-19 14:37:10.405
-2,-1,-2,0,-9,-5,2,1,2025-02-19 14:37:10.416
-2,-1,-2,0,-9,-5,2,1,2025-02-19 14:37:10.429
-1,-1,-3,-2,-7,-7,4,-1,2025-02-19 14:37:10.441
-1,-1,-3,-2,-7,-7,4,-1,2025-02-19 14:37:10.450
0,-4,-1,-3,-8,-1,-1,0,2025-02-19 14:37:10.461
-1,-1,1,-1,-7,3,0,-1,2025-02-19 14:37:10.472
1,1,-1,-1,-8,2,-6,1,2025-02-19 14:37:10.482
-3,-1,-3,-2,-10,-3,-3,-3,2025-02-19 14:37:10.494
-3,-1,-3,-2,-10,-3,-3,-3,2025-02-19 14:37:10.505
0,-2,0,1,-8,6,5,0,2025-02-19 14:37:10.516
-1,-1,1,0,-6,-18,1,-2,2025-02-19 14:37:10.527
-3,0,-1,-1,-8,1,2,-1,2025-02-19 14:37:10.538
-1,0,-3,0,-9,-9,-3,-1,2025-02-19 14:37:10.553
-1,0,-3,0,-9,-9,-3,-1,2025-02-19 14:37:10.561
-1,0,-3,0,-9,-9,-3,-1,2025-02-19 14:37:10.572
-1,-3,-1,-2,-8,-2,-4,-3,2025-02-19 14:37:10.587
0,-1,-2,-1,-7,2,2,1,2025-02-19 14:37:10.595
1,-1,-3,-1,-9,-2,4,1,2025-02-19 14:37:10.606
0,1,-2,-1,-7,-4,0,-2,2025-02-19 14:37:10.617
0,1,-2,-1,-7,-4,0,-2,2025-02-19 14:37:10.628
1,-1,0,0,-8,2,-9,1,2025-02-19 14:37:10.640
1,-1,0,0,-8,2,-9,1,2025-02-19 14:37:10.650
-3,-1,-2,-2,-7,-4,-2,-2,2025-02-19 14:37:10.665
-1,0,-2,-1,-8,0,-2,-2,2025-02-19 14:37:10.672
-1,0,-2,-1,-8,0,-2,-2,2025-02-19 14:37:10.684
-3,-2,0,-1,-9,-22,-9,-4,2025-02-19 14:37:10.695
-3,-2,0,-1,-9,-22,-9,-4,2025-02-19 14:37:10.706
0,-3,-1,0,-8,6,2,0,2025-02-19 14:37:10.718
0,-3,-1,0,-8,6,2,0,2025-02-19 14:37:10.729
-2,-1,-1,0,-8,1,4,0,2025-02-19 14:37:10.742
-2,-1,-1,0,-8,1,4,0,2025-02-19 14:37:10.750
1,-1,0,0,-7,0,-6,0,2025-02-19 14:37:10.762
1,-1,0,0,-7,0,-6,0,2025-02-19 14:37:10.775
-1,-2,-1,-1,-7,2,-4,-2,2025-02-19 14:37:10.785
-2,-2,-4,-2,-8,-3,-10,-3,2025-02-19 14:37:10.795
-1,0,-3,-1,-7,-9,1,0,2025-02-19 14:37:10.807
-1,-3,0,-1,-7,9,-3,-1,2025-02-19 14:37:10.818
-1,-3,0,-1,-7,9,-3,-1,2025-02-19 14:37:10.829
-2,-1,0,-2,-8,-3,2,-2,2025-02-19 14:37:10.840
1,-2,-1,-1,-7,3,0,-2,2025-02-19 14:37:10.852
0,0,-2,1,-7,8,6,1,2025-02-19 14:37:10.862
-2,-2,1,-1,-9,-3,0,-2,2025-02-19 14:37:10.875
-2,-2,1,-1,-9,-3,0,-2,2025-02-19 14:37:10.884
-1,0,-1,-2,-8,-3,6,-2,2025-02-19 14:37:10.898
-1,0,-1,-2,-8,-3,6,-2,2025-02-19 14:37:10.907
0,0,-2,-2,-7,6,-7,-3,2025-02-19 14:37:10.918
0,0,-2,-2,-7,6,-7,-3,2025-02-19 14:37:10.931
-1,-2,0,-2,-8,-2,3,0,2025-02-19 14:37:10.940
-1,-2,0,-2,-8,-2,3,0,2025-02-19 14:37:10.952
-2,-1,-2,-1,-7,-4,1,3,2025-02-19 14:37:10.963
0,-1,0,0,-8,4,-3,0,2025-02-19 14:37:10.975
-3,0,-2,-2,-9,-8,0,-2,2025-02-19 14:37:10.988
-1,-4,-2,0,-8,2,-3,-3,2025-02-19 14:37:10.998
-1,-4,-2,0,-8,2,-3,-3,2025-02-19 14:37:11.008
-1,-1,-4,-3,-9,0,-8,-1,2025-02-19 14:37:11.019
-2,-3,-1,-1,-9,9,-2,-4,2025-02-19 14:37:11.030
-2,-1,-1,0,-9,1,2,0,2025-02-19 14:37:11.042
-2,-1,-1,0,-9,1,2,0,2025-02-19 14:37:11.054
-1,0,-3,-1,-8,-3,0,-2,2025-02-19 14:37:11.063
-1,0,-3,-1,-8,-3,0,-2,2025-02-19 14:37:11.075
0,-2,1,-3,-5,3,3,0,2025-02-19 14:37:11.088
-1,-1,-3,-2,-9,-1,-4,-2,2025-02-19 14:37:11.097
1,1,-1,-1,-8,6,-3,-2,2025-02-19 14:37:11.108
-2,-4,-2,-1,-9,-9,-2,0,2025-02-19 14:37:11.119
-2,-4,-2,-1,-9,-9,-2,0,2025-02-19 14:37:11.131
-1,-1,-1,0,-7,-3,-8,-2,2025-02-19 14:37:11.142
0,-2,0,-2,-9,1,1,-1,2025-02-19 14:37:11.153
-1,-1,-2,-2,-9,-1,-3,-2,2025-02-19 14:37:11.164
1,-1,-1,1,-7,12,-1,-1,2025-02-19 14:37:11.175
-2,-1,-1,-1,-9,-12,0,-2,2025-02-19 14:37:11.186
-1,-1,2,-3,-7,4,-6,-2,2025-02-19 14:37:11.200
-1,0,-2,-2,-7,5,0,-3,2025-02-19 14:37:11.212
-2,-2,-3,-1,-8,-4,-1,-1,2025-02-19 14:37:11.220
-2,-2,-3,-1,-8,-4,-1,-1,2025-02-19 14:37:11.231
-1,-1,-1,-2,-10,-29,-4,-2,2025-02-19 14:37:11.242
-1,-1,-1,-2,-10,-29,-4,-2,2025-02-19 14:37:11.253
-2,-1,1,1,-8,10,-1,0,2025-02-19 14:37:11.264
-2,-2,-2,-2,-9,-4,-4,-2,2025-02-19 14:37:11.275
-1,0,-5,-1,-9,4,1,-1,2025-02-19 14:37:11.287
0,1,0,1,-8,6,4,0,2025-02-19 14:37:11.300
0,1,0,1,-8,6,4,0,2025-02-19 14:37:11.309
0,1,0,1,-8,6,4,0,2025-02-19 14:37:11.320
-2,-1,0,0,-9,-18,-3,-2,2025-02-19 14:37:11.331
1,0,-1,-2,-7,3,-1,0,2025-02-19 14:37:11.343
-3,-2,-1,0,-6,5,1,-1,2025-02-19 14:37:11.354
0,-2,-1,0,-8,0,0,0,2025-02-19 14:37:11.367
1,-2,0,0,-9,0,-1,2,2025-02-19 14:37:11.376
-1,-2,-2,-2,-7,-13,0,0,2025-02-19 14:37:11.388
-1,-2,-1,-1,-8,-1,-3,0,2025-02-19 14:37:11.399
-1,-2,-1,-1,-8,-1,-3,0,2025-02-19 14:37:11.413
-1,-1,-2,-1,-7,3,-2,-2,2025-02-19 14:37:11.422
-1,-1,-2,-1,-7,3,-2,-2,2025-02-19 14:37:11.432
-3,-1,0,-1,-10,-5,1,-3,2025-02-19 14:37:11.443
-3,-1,0,-1,-10,-5,1,-3,2025-02-19 14:37:11.454
0,-2,-3,-1,-7,8,0,0,2025-02-19 14:37:11.466
2,-1,-1,0,-6,3,-1,0,2025-02-19 14:37:11.477
2,-1,-1,0,-6,3,-1,0,2025-02-19 14:37:11.488
-1,-1,-2,-2,-9,-14,1,-1,2025-02-19 14:37:11.499
0,0,-3,-1,-7,-1,0,-1,2025-02-19 14:37:11.511
-1,-2,-1,-1,-7,0,-2,-4,2025-02-19 14:37:11.525
-1,-2,-1,-1,-7,0,-2,-4,2025-02-19 14:37:11.533
-2,-2,0,-1,-8,7,-1,0,2025-02-19 14:37:11.544
-2,-2,0,-1,-8,7,-1,0,2025-02-19 14:37:11.555
-3,-2,-2,-2,-6,-2,-3,-2,2025-02-19 14:37:11.567
-3,-2,-2,-2,-6,-2,-3,-2,2025-02-19 14:37:11.578
-1,-1,-1,-1,-9,5,0,0,2025-02-19 14:37:11.589
0,-3,-1,0,-7,-1,0,0,2025-02-19 14:37:11.600
0,-3,-1,0,-7,-1,0,0,2025-02-19 14:37:11.612
-2,0,-1,0,-9,0,-3,0,2025-02-19 14:37:11.625
-2,0,-1,0,-9,0,-3,0,2025-02-19 14:37:11.634
-1,1,-1,-1,-7,1,-1,-2,2025-02-19 14:37:11.644
1,-2,-2,-1,-9,-1,-2,2,2025-02-19 14:37:11.656
1,-2,-2,-1,-9,-1,-2,2,2025-02-19 14:37:11.667
-2,-1,0,0,-7,6,-1,-2,2025-02-19 14:37:11.680
-2,-1,0,0,-7,6,-1,-2,2025-02-19 14:37:11.689
0,0,-1,-1,-8,1,2,-3,2025-02-19 14:37:11.700
0,0,-1,-1,-8,1,2,-3,2025-02-19 14:37:11.712
-2,0,-2,-3,-9,-19,-2,-1,2025-02-19 14:37:11.725
-2,0,-2,-3,-9,-19,-2,-1,2025-02-19 14:37:11.734
-1,-1,-1,-3,-7,1,1,0,2025-02-19 14:37:11.745
-1,-1,-1,-3,-7,1,1,0,2025-02-19 14:37:11.756
0,-3,-2,-1,-9,-4,-2,-1,2025-02-19 14:37:11.767
-2,0,0,-1,-7,-3,5,-1,2025-02-19 14:37:11.779
-1,-1,-3,-1,-10,2,-1,-2,2025-02-19 14:37:11.790
-2,-1,-1,-3,-8,8,-2,-1,2025-02-19 14:37:11.801
-2,-1,-1,-3,-8,8,-2,-1,2025-02-19 14:37:11.812
-1,-3,1,0,-6,12,-2,-1,2025-02-19 14:37:11.824
1,0,-4,-1,-7,4,-3,1,2025-02-19 14:37:11.837
0,0,-2,-1,-9,-1,-2,-1,2025-02-19 14:37:11.847
-2,-3,-1,-1,-7,-2,1,-2,2025-02-19 14:37:11.856
0,1,-1,-1,-8,-3,3,-1,2025-02-19 14:37:11.868
-1,0,-1,-2,-8,-2,-1,-1,2025-02-19 14:37:11.879
-1,-2,0,1,-6,-5,1,1,2025-02-19 14:37:11.890
-1,-1,-1,-4,-9,-5,-2,0,2025-02-19 14:37:11.901
-1,-1,-1,-4,-9,-5,-2,0,2025-02-19 14:37:11.912
-2,-1,-1,0,-7,-4,-1,-1,2025-02-19 14:37:11.924
-2,-1,-1,0,-7,-4,-1,-1,2025-02-19 14:37:11.937
0,0,-3,-3,-10,-6,0,-2,2025-02-19 14:37:11.946
1,0,0,0,-7,-1,3,-1,2025-02-19 14:37:11.957
0,0,0,0,-7,1,-6,0,2025-02-19 14:37:11.968
0,-2,2,-1,-8,-2,3,-1,2025-02-19 14:37:11.979
0,-2,2,-1,-8,-2,3,-1,2025-02-19 14:37:11.993
-2,-2,-2,-1,-8,0,-5,-2,2025-02-19 14:37:12.002
0,-1,-2,0,-8,-3,-2,-2,2025-02-19 14:37:12.013
-1,-2,-1,-3,-9,0,-5,-2,2025-02-19 14:37:12.024
0,-3,0,-1,-8,-14,-1,-2,2025-02-19 14:37:12.035
0,-1,0,-2,-6,1,-7,-1,2025-02-19 14:37:12.048
-1,-2,-2,-3,-9,-8,0,-1,2025-02-19 14:37:12.058
-1,-2,-1,-2,-8,-1,1,1,2025-02-19 14:37:12.069
-1,0,-1,-3,-8,-6,-2,-1,2025-02-19 14:37:12.080
-2,-2,-2,0,-9,0,6,0,2025-02-19 14:37:12.091
-1,-3,-3,-1,-9,2,2,-1,2025-02-19 14:37:12.102
-1,-3,-3,-1,-9,2,2,-1,2025-02-19 14:37:12.114
0,1,1,-1,-8,-3,-1,0,2025-02-19 14:37:12.125
-1,-1,-2,-2,-8,2,-2,-1,2025-02-19 14:37:12.136
0,-2,-1,0,-8,7,1,-1,2025-02-19 14:37:12.150
0,-1,-2,-2,-7,0,-4,-1,2025-02-19 14:37:12.160
0,-1,-2,-2,-7,0,-4,-1,2025-02-19 14:37:12.169
-2,-1,-1,1,-8,0,-1,-1,2025-02-19 14:37:12.180
-2,-2,-2,-1,-8,0,-1,-1,2025-02-19 14:37:12.191
0,-2,-2,-1,-7,-3,1,-1,2025-02-19 14:37:12.203
0,-2,-2,-1,-7,-3,1,-1,2025-02-19 14:37:12.214
-1,-2,-2,0,-9,-5,-1,-2,2025-02-19 14:37:12.225
-1,-2,-2,0,-9,-5,-1,-2,2025-02-19 14:37:12.236
0,-1,-2,-1,-8,-7,-4,-1,2025-02-19 14:37:12.248
-3,0,-1,0,-6,-2,-3,1,2025-02-19 14:37:12.260
-1,-2,0,-1,-5,4,-3,1,2025-02-19 14:37:12.274
-3,-1,-2,-3,-9,-13,-3,0,2025-02-19 14:37:12.282
-3,-1,-2,-3,-9,-13,-3,0,2025-02-19 14:37:12.296
-1,-2,-2,0,-7,5,-2,-1,2025-02-19 14:37:12.306
0,-1,-1,-2,-7,-4,-2,-3,2025-02-19 14:37:12.315
0,-1,-3,-1,-7,0,-2,-2,2025-02-19 14:37:12.326
-2,2,0,1,-9,3,1,-1,2025-02-19 14:37:12.337
-2,2,0,1,-9,3,1,-1,2025-02-19 14:37:12.349
0,-1,1,-1,-8,0,0,0,2025-02-19 14:37:12.362
-1,-1,0,0,-8,12,-3,-1,2025-02-19 14:37:12.373
-1,1,-3,-2,-8,-1,-1,-2,2025-02-19 14:37:12.383
-1,1,-3,-2,-8,-1,-1,-2,2025-02-19 14:37:12.393
-2,-1,0,-1,-8,6,3,2,2025-02-19 14:37:12.404
-2,-1,0,-1,-8,6,3,2,2025-02-19 14:37:12.415
-1,-1,-4,-1,-7,-8,-4,-3,2025-02-19 14:37:12.429
-3,-1,-1,-2,-8,-3,-2,1,2025-02-19 14:37:12.439
-1,-1,0,0,-8,3,-2,-2,2025-02-19 14:37:12.449
0,-2,0,-2,-8,-3,-4,-2,2025-02-19 14:37:12.462
0,-2,0,-2,-8,-3,-4,-2,2025-02-19 14:37:12.472
1,-1,0,-1,-6,-3,4,1,2025-02-19 14:37:12.482
0,-3,-1,-1,-9,-12,7,1,2025-02-19 14:37:12.496
-2,0,-1,-1,-9,-6,-1,0,2025-02-19 14:37:12.504
-2,0,-1,-1,-9,-6,-1,0,2025-02-19 14:37:12.515
-1,-1,-1,-3,-8,-4,2,-2,2025-02-19 14:37:12.527
-1,-1,-1,-3,-8,-4,2,-2,2025-02-19 14:37:12.538
-2,-2,-1,0,-8,5,-1,-1,2025-02-19 14:37:12.549
-2,-2,-1,0,-8,5,-1,-1,2025-02-19 14:37:12.560
0,-1,-1,-2,-8,0,1,2,2025-02-19 14:37:12.571
-1,-2,0,-2,-10,-2,-4,-2,2025-02-19 14:37:12.583
-1,-2,0,-2,-10,-2,-4,-2,2025-02-19 14:37:12.596
-1,-2,-3,-3,-9,-8,-4,-1,2025-02-19 14:37:12.605
-1,-2,-3,-3,-9,-8,-4,-1,2025-02-19 14:37:12.618
-3,0,0,-2,-6,10,-7,0,2025-02-19 14:37:12.627
0,-1,-2,0,-9,0,-1,-2,2025-02-19 14:37:12.638
0,-1,-2,0,-9,0,-1,-2,2025-02-19 14:37:12.649
-1,-1,-2,-1,-8,-3,1,-1,2025-02-19 14:37:12.660
-1,-1,-2,-1,-8,-3,1,-1,2025-02-19 14:37:12.672
-1,-2,-3,0,-9,-5,-3,0,2025-02-19 14:37:12.684
-1,-2,1,1,-9,4,-6,-4,2025-02-19 14:37:12.697
-2,-1,0,-2,-9,-5,1,-1,2025-02-19 14:37:12.705
-2,-1,0,-2,-9,-5,1,-1,2025-02-19 14:37:12.717
0,-1,0,0,-8,-2,-4,-1,2025-02-19 14:37:12.728
0,-1,0,0,-8,-2,-4,-1,2025-02-19 14:37:12.739
0,0,1,0,-6,-3,-1,-1,2025-02-19 14:37:12.750
-2,0,-1,0,-6,-3,1,-1,2025-02-19 14:37:12.761
-1,-2,-1,-2,-9,-28,4,-3,2025-02-19 14:37:12.774
-2,-2,0,0,-7,8,-2,-1,2025-02-19 14:37:12.783
-2,-2,0,0,-7,8,-2,-1,2025-02-19 14:37:12.794
-1,1,-2,-1,-8,5,-2,-1,2025-02-19 14:37:12.808
0,-1,0,-1,-7,10,0,0,2025-02-19 14:37:12.817
-2,-1,-3,-2,-9,-8,2,-4,2025-02-19 14:37:12.828
1,0,-1,0,-9,1,0,0,2025-02-19 14:37:12.839
-2,0,-2,0,-7,4,-3,1,2025-02-19 14:37:12.850
1,1,-2,-1,-7,3,-7,-1,2025-02-19 14:37:12.862
-2,-3,-2,-1,-10,3,-2,-1,2025-02-19 14:37:12.873
-1,-1,-2,-2,-6,15,-3,0,2025-02-19 14:37:12.885
-1,-1,-2,-2,-6,15,-3,0,2025-02-19 14:37:12.895
-2,-3,0,0,-8,6,2,-2,2025-02-19 14:37:12.907
-2,-3,0,0,-8,6,2,-2,2025-02-19 14:37:12.921
1,0,-2,1,-8,-2,2,0,2025-02-19 14:37:12.932
-2,-1,-1,-1,-8,-2,-2,0,2025-02-19 14:37:12.941
-1,-1,0,-1,-8,-4,0,-1,2025-02-19 14:37:12.951
-3,-1,1,-1,-8,0,-2,-1,2025-02-19 14:37:12.962
-3,-1,1,-1,-8,0,-2,-1,2025-02-19 14:37:12.973
-2,-1,-3,0,-8,-7,0,-1,2025-02-19 14:37:12.987
-2,0,-1,0,-7,-10,-1,0,2025-02-19 14:37:12.997
0,-1,0,-2,-5,-6,-3,0,2025-02-19 14:37:13.007
-2,0,-2,0,-8,2,-3,-2,2025-02-19 14:37:13.021
-2,0,-2,0,-8,2,-3,-2,2025-02-19 14:37:13.030
-1,0,-1,-1,-9,-4,-2,-1,2025-02-19 14:37:13.041
0,0,-1,-1,-9,1,-3,0,2025-02-19 14:37:13.052
-2,-3,-3,-2,-7,-3,4,0,2025-02-19 14:37:13.063
-2,-3,-3,-2,-7,-3,4,0,2025-02-19 14:37:13.074
0,-1,-2,0,-8,-1,1,-1,2025-02-19 14:37:13.089
0,-1,-2,0,-8,-1,1,-1,2025-02-19 14:37:13.096
1,0,-1,0,-7,5,2,-1,2025-02-19 14:37:13.108
1,0,-1,0,-7,5,2,-1,2025-02-19 14:37:13.121
0,-1,1,-1,-6,-3,-2,-1,2025-02-19 14:37:13.131
-1,-2,-1,-1,-8,5,-3,-3,2025-02-19 14:37:13.142
-1,-2,-1,-1,-8,5,-3,-3,2025-02-19 14:37:13.153
-2,-1,0,-1,-8,-4,2,1,2025-02-19 14:37:13.164
-1,-1,-1,-1,-6,-4,-1,-1,2025-02-19 14:37:13.175
-2,-2,-1,-2,-9,-6,-12,-3,2025-02-19 14:37:13.186
-2,-2,-1,-2,-9,-6,-12,-3,2025-02-19 14:37:13.198
-2,1,-1,1,-9,3,1,-1,2025-02-19 14:37:13.208
-2,1,-1,1,-9,3,1,-1,2025-02-19 14:37:13.220
-1,-3,-2,-2,-10,-18,2,-3,2025-02-19 14:37:13.234
-1,-2,-1,0,-8,-1,-3,-1,2025-02-19 14:37:13.245
-1,-1,-1,-1,-7,5,0,-2,2025-02-19 14:37:13.253
0,-1,-1,0,-8,1,-2,-1,2025-02-19 14:37:13.264
0,-1,-1,0,-8,1,-2,-1,2025-02-19 14:37:13.276
-3,-1,-1,-2,-9,-20,2,-4,2025-02-19 14:37:13.288
-3,-2,-2,-1,-7,0,4,-2,2025-02-19 14:37:13.298
-1,-2,0,-1,-7,4,-1,1,2025-02-19 14:37:13.310
-1,-2,-2,0,-10,8,-2,-2,2025-02-19 14:37:13.320
-1,-2,-2,0,-10,8,-2,-2,2025-02-19 14:37:13.332
-1,0,-1,-3,-7,3,0,0,2025-02-19 14:37:13.346
-1,0,-1,-3,-7,3,0,0,2025-02-19 14:37:13.355
-1,-1,-3,-2,-6,-1,4,-1,2025-02-19 14:37:13.364
-1,-1,-3,-2,-6,-1,4,-1,2025-02-19 14:37:13.375
1,1,-1,-1,-7,-4,-1,-1,2025-02-19 14:37:13.387
1,1,-1,-1,-7,-4,-1,-1,2025-02-19 14:37:13.400
-3,-1,0,-4,-9,4,1,-1,2025-02-19 14:37:13.409
1,-1,-1,-2,-7,-2,1,-2,2025-02-19 14:37:13.420
-1,1,-2,0,-7,0,-8,-2,2025-02-19 14:37:13.432
-1,-1,0,0,-7,7,-1,1,2025-02-19 14:37:13.445
-1,-1,0,0,-7,7,-1,1,2025-02-19 14:37:13.454
-1,0,0,-1,-8,-2,-3,-2,2025-02-19 14:37:13.465
-1,0,0,-1,-8,-2,-3,-2,2025-02-19 14:37:13.476
0,-1,0,0,-6,2,0,0,2025-02-19 14:37:13.488
-1,0,0,-1,-7,6,-4,-2,2025-02-19 14:37:13.499
-1,-1,-1,-1,-8,-3,0,-1,2025-02-19 14:37:13.511
0,-1,1,-1,-8,3,-1,-1,2025-02-19 14:37:13.522
0,-2,-1,1,-7,-5,-2,0,2025-02-19 14:37:13.533
-1,0,-2,-1,-8,4,-2,-4,2025-02-19 14:37:13.545
0,-2,-3,-1,-9,-6,0,0,2025-02-19 14:37:13.557
-1,-1,-2,-1,-7,-1,-1,0,2025-02-19 14:37:13.565
-1,-1,-2,-1,-7,-1,-1,0,2025-02-19 14:37:13.577
-1,0,-2,-1,-7,1,-1,-2,2025-02-19 14:37:13.588
-1,0,-2,-1,-7,1,-1,-2,2025-02-19 14:37:13.599
-1,-1,-2,1,-6,0,-1,-2,2025-02-19 14:37:13.611
-1,0,-2,-2,-6,-1,-3,-1,2025-02-19 14:37:13.621
-1,0,-1,-1,-7,-1,-3,-1,2025-02-19 14:37:13.633
-2,-3,-3,-3,-9,-1,-3,-2,2025-02-19 14:37:13.645
-2,-3,-3,-3,-9,-1,-3,-2,2025-02-19 14:37:13.657
-2,-3,-1,-2,-10,-3,0,-2,2025-02-19 14:37:13.666
0,-1,-2,0,-8,-14,-2,0,2025-02-19 14:37:13.677
0,-2,1,0,-7,2,0,1,2025-02-19 14:37:13.689
0,-2,1,0,-7,2,0,1,2025-02-19 14:37:13.700
-1,-2,-2,1,-8,-3,-2,-3,2025-02-19 14:37:13.713
-1,-2,-2,1,-8,-3,-2,-3,2025-02-19 14:37:13.722
-1,2,0,-2,-8,-1,0,-2,2025-02-19 14:37:13.733
-1,-2,-2,0,-9,-3,-4,-1,2025-02-19 14:37:13.745
-1,-2,-2,0,-9,-3,-4,-1,2025-02-19 14:37:13.756
-1,-1,0,-2,-7,0,1,0,2025-02-19 14:37:13.769
-1,-1,0,-2,-7,0,1,0,2025-02-19 14:37:13.778
1,0,-2,-1,-7,23,0,-1,2025-02-19 14:37:13.789
-1,0,-2,-2,-8,18,-3,-2,2025-02-19 14:37:13.800
0,-1,-4,-2,-10,-1,0,-1,2025-02-19 14:37:13.812
-3,-2,-1,-2,-8,-6,-2,0,2025-02-19 14:37:13.823
-3,-2,-1,-2,-8,-6,-2,0,2025-02-19 14:37:13.834
-1,-1,-1,0,-9,-10,1,-2,2025-02-19 14:37:13.845
-1,-1,-1,0,-9,-10,1,-2,2025-02-19 14:37:13.857
0,-2,-1,-1,-8,-2,1,-1,2025-02-19 14:37:13.870
-3,1,-2,0,-8,-3,-1,-2,2025-02-19 14:37:13.881
-1,0,0,-1,-7,-5,0,-3,2025-02-19 14:37:13.890
-1,0,0,-1,-7,-5,0,-3,2025-02-19 14:37:13.901
-1,-1,-2,1,-8,-4,-4,-1,2025-02-19 14:37:13.912
-2,0,-1,-1,-9,-6,3,-2,2025-02-19 14:37:13.923
-1,-2,-1,-3,-9,-3,-5,0,2025-02-19 14:37:13.935
-3,-3,-1,-1,-7,11,2,0,2025-02-19 14:37:13.946
-3,-3,-1,-1,-7,11,2,0,2025-02-19 14:37:13.957
0,-1,0,-2,-9,2,-3,-1,2025-02-19 14:37:13.968
-1,-1,1,-1,-9,-5,-2,-2,2025-02-19 14:37:13.979
-3,-1,-1,0,-7,-7,-3,-1,2025-02-19 14:37:13.993
0,-2,-1,-1,-8,-3,0,0,2025-02-19 14:37:14.001
-1,-2,1,-2,-7,-4,-3,-1,2025-02-19 14:37:14.012
-2,-1,-3,-2,-10,0,2,0,2025-02-19 14:37:14.025
-2,-1,-3,-2,-10,0,2,0,2025-02-19 14:37:14.034
-1,1,-2,0,-8,-7,1,-2,2025-02-19 14:37:14.046
-1,1,-2,0,-8,-7,1,-2,2025-02-19 14:37:14.057
-2,-2,-2,-1,-8,1,-2,0,2025-02-19 14:37:14.068
-2,-2,-2,-1,-8,1,-2,0,2025-02-19 14:37:14.079
0,1,-2,-2,-9,-5,0,-3,2025-02-19 14:37:14.093
-2,-2,-1,-1,-7,0,-2,-1,2025-02-19 14:37:14.103
-1,0,0,-1,-7,1,-1,-2,2025-02-19 14:37:14.113
-2,0,-1,0,-8,-4,-4,0,2025-02-19 14:37:14.124
-2,0,-1,0,-8,-4,-4,0,2025-02-19 14:37:14.135
-2,-2,-1,-2,-7,-4,3,0,2025-02-19 14:37:14.146
0,0,-4,0,-8,8,1,1,2025-02-19 14:37:14.157
-1,-2,0,0,-6,4,-4,-1,2025-02-19 14:37:14.169
-1,-3,-3,-2,-8,3,1,-1,2025-02-19 14:37:14.182
-1,-1,0,-1,-8,-4,2,-3,2025-02-19 14:37:14.193
-1,-1,0,-1,-8,-4,2,-3,2025-02-19 14:37:14.202
-1,-1,-2,-1,-9,-4,-2,-2,2025-02-19 14:37:14.213
0,-1,-1,-1,-9,-1,-1,0,2025-02-19 14:37:14.225
-1,1,-1,0,-9,0,-1,-1,2025-02-19 14:37:14.236
-1,-3,-1,-2,-7,-2,0,0,2025-02-19 14:37:14.247
-1,-3,-1,-2,-7,-2,0,0,2025-02-19 14:37:14.258
-2,0,-1,-1,-7,13,-2,-1,2025-02-19 14:37:14.269
-1,0,-1,-1,-7,4,0,-2,2025-02-19 14:37:14.280
0,-3,-2,-2,-8,-4,1,2,2025-02-19 14:37:14.291
-2,0,0,0,-8,-10,-3,-1,2025-02-19 14:37:14.305
-2,0,0,0,-8,-10,-3,-1,2025-02-19 14:37:14.315
-1,-2,0,-3,-9,1,-2,-3,2025-02-19 14:37:14.325
-1,-1,0,-2,-8,-4,0,-1,2025-02-19 14:37:14.338
-1,-1,-2,1,-7,-6,2,0,2025-02-19 14:37:14.347
-1,-1,-2,1,-7,-6,2,0,2025-02-19 14:37:14.359
0,-1,-1,-2,-9,1,-3,-1,2025-02-19 14:37:14.370
0,-1,-1,-2,-9,1,-3,-1,2025-02-19 14:37:14.381
-1,-1,-1,-1,-7,-2,0,-1,2025-02-19 14:37:14.393
-1,-1,-1,-1,-7,-2,0,-1,2025-02-19 14:37:14.403
0,-2,-1,0,-7,1,0,-1,2025-02-19 14:37:14.416
0,-2,-1,-1,-8,3,-6,1,2025-02-19 14:37:14.425
0,-1,-2,-2,-8,0,-5,0,2025-02-19 14:37:14.436
0,-1,-2,-2,-8,0,-5,0,2025-02-19 14:37:14.448
-1,1,0,-2,-7,-3,-1,-2,2025-02-19 14:37:14.459
0,-2,-1,0,-8,-12,0,-1,2025-02-19 14:37:14.470
-1,0,-2,0,-8,4,4,-2,2025-02-19 14:37:14.482
-1,-2,0,0,-7,2,3,-1,2025-02-19 14:37:14.495
0,-1,0,-1,-8,-6,-1,-1,2025-02-19 14:37:14.504
-3,-1,-1,-2,-9,-11,-7,-1,2025-02-19 14:37:14.516
0,0,-1,-1,-7,4,-2,-1,2025-02-19 14:37:14.530
0,0,-1,-1,-7,4,-2,-1,2025-02-19 14:37:14.538
-3,-2,-1,-1,-8,1,-2,-1,2025-02-19 14:37:14.549
-3,-2,-1,-1,-8,1,-2,-1,2025-02-19 14:37:14.560
-1,-1,-1,0,-8,3,-1,-1,2025-02-19 14:37:14.571
-1,-1,-1,0,-8,3,-1,-1,2025-02-19 14:37:14.582
0,-1,-2,-2,-8,-1,-1,0,2025-02-19 14:37:14.593
-1,-2,-1,-1,-7,-23,-13,-2,2025-02-19 14:37:14.604
-1,-2,-1,-2,-9,5,2,-3,2025-02-19 14:37:14.616
0,-1,-2,0,-7,-1,-5,-1,2025-02-19 14:37:14.630
0,-1,-2,0,-7,-1,-5,-1,2025-02-19 14:37:14.638
0,0,-2,1,-8,1,0,0,2025-02-19 14:37:14.651
0,0,-2,1,-8,1,0,0,2025-02-19 14:37:14.660
2,-2,-2,-1,-6,0,-9,-1,2025-02-19 14:37:14.671
2,-2,-2,-1,-6,0,-9,-1,2025-02-19 14:37:14.682
-1,0,-1,0,-8,-17,7,0,2025-02-19 14:37:14.694
-1,0,-1,0,-8,-17,7,0,2025-02-19 14:37:14.705
-3,-1,-2,-1,-10,3,-1,-2,2025-02-19 14:37:14.716
-2,-2,-1,-1,-6,3,-1,-1,2025-02-19 14:37:14.728
-2,-2,-1,-1,-6,3,-1,-1,2025-02-19 14:37:14.741
-1,1,-1,0,-8,1,-5,-1,2025-02-19 14:37:14.749
-1,1,-1,0,-8,1,-5,-1,2025-02-19 14:37:14.761
0,-1,0,-1,-9,-4,3,-3,2025-02-19 14:37:14.772
0,-1,-1,-1,-7,-5,-3,1,2025-02-19 14:37:14.783
-1,0,-2,0,-9,3,-5,-2,2025-02-19 14:37:14.795
-2,-2,-2,-1,-8,-5,3,1,2025-02-19 14:37:14.807
-2,-2,-2,-1,-8,-5,3,1,2025-02-19 14:37:14.817
-2,0,1,0,-8,-2,0,-2,2025-02-19 14:37:14.828
-2,0,1,0,-8,-2,0,-2,2025-02-19 14:37:14.839
-3,-2,-2,-4,-9,3,-4,0,2025-02-19 14:37:14.853
-3,-2,-2,-4,-9,3,-4,0,2025-02-19 14:37:14.861
-1,-1,-2,-2,-8,-2,1,1,2025-02-19 14:37:14.873
-1,-1,-2,-2,-8,-2,1,1,2025-02-19 14:37:14.884
0,-2,-1,-1,-8,0,0,0,2025-02-19 14:37:14.895
-1,-1,0,-1,-6,-10,5,0,2025-02-19 14:37:14.906
0,0,-1,0,-8,-1,3,-1,2025-02-19 14:37:14.918
-3,-2,-1,-2,-7,-7,-1,-2,2025-02-19 14:37:14.930
-3,-2,-1,-2,-7,-7,-1,-2,2025-02-19 14:37:14.940
0,-2,-1,-1,-7,14,-2,0,2025-02-19 14:37:14.951
-3,-2,-1,-2,-8,4,-4,-2,2025-02-19 14:37:14.964
0,0,-3,-2,-7,-1,1,-2,2025-02-19 14:37:14.973
0,-1,-1,0,-9,0,-3,0,2025-02-19 14:37:14.984
-3,0,0,1,-8,-5,-2,-1,2025-02-19 14:37:14.995
0,-3,-2,-1,-7,-3,-2,-1,2025-02-19 14:37:15.007
0,-3,-2,-1,-7,-3,-2,-1,2025-02-19 14:37:15.018
-1,-2,2,-1,-9,-19,-9,-3,2025-02-19 14:37:15.029
-1,-2,2,-1,-9,-19,-9,-3,2025-02-19 14:37:15.040
0,-3,-1,-2,-8,7,5,-1,2025-02-19 14:37:15.051
0,-3,-1,-2,-8,7,5,-1,2025-02-19 14:37:15.063
-1,-2,-1,1,-8,0,-2,2,2025-02-19 14:37:15.076
-1,-2,-1,1,-8,0,-2,2,2025-02-19 14:37:15.085
-1,1,-2,-2,-8,2,1,-2,2025-02-19 14:37:15.096
-2,-1,-2,-3,-9,-3,-1,-2,2025-02-19 14:37:15.107
-2,-1,-2,-3,-9,-3,-1,-2,2025-02-19 14:37:15.121
-1,0,-2,-1,-7,1,-2,2,2025-02-19 14:37:15.131
-1,0,-2,-1,-7,1,-2,2,2025-02-19 14:37:15.141
-2,-2,-1,0,-8,-2,2,-1,2025-02-19 14:37:15.152
0,0,1,-1,-8,-3,3,0,2025-02-19 14:37:15.163
-2,-1,-1,-2,-10,-1,0,-2,2025-02-19 14:37:15.176
-3,-1,-2,0,-9,-7,1,-3,2025-02-19 14:37:15.185
-1,0,0,-2,-6,1,-3,-3,2025-02-19 14:37:15.196
-1,0,0,-2,-6,1,-3,-3,2025-02-19 14:37:15.207
0,-1,-1,-1,-8,0,-2,0,2025-02-19 14:37:15.218
0,0,0,0,-8,-3,-3,1,2025-02-19 14:37:15.230
0,0,0,0,-8,-3,-3,1,2025-02-19 14:37:15.241
-1,-2,1,0,-7,0,-3,-1,2025-02-19 14:37:15.252
-1,-2,1,0,-7,0,-3,-1,2025-02-19 14:37:15.264
-1,-1,-2,-1,-7,1,-1,-1,2025-02-19 14:37:15.277
-2,-2,-1,-2,-8,-1,-1,-1,2025-02-19 14:37:15.286
-2,-2,-1,-2,-8,-1,-1,-1,2025-02-19 14:37:15.297
0,-2,-2,-2,-9,-3,-1,-2,2025-02-19 14:37:15.308
0,-2,-2,-2,-9,-3,-1,-2,2025-02-19 14:37:15.319
0,-2,-1,-1,-6,0,2,-1,2025-02-19 14:37:15.331
-2,-3,-3,-2,-10,-3,0,-1,2025-02-19 14:37:15.342
-2,1,-1,-2,-9,-2,0,-1,2025-02-19 14:37:15.353
-2,1,-1,-2,-9,-2,0,-1,2025-02-19 14:37:15.363
-1,0,-1,-1,-8,-2,4,-1,2025-02-19 14:37:15.375
-1,-3,-3,0,-7,-2,-1,-2,2025-02-19 14:37:15.388
-1,-3,-3,0,-7,-2,-1,-2,2025-02-19 14:37:15.397
-1,-1,-1,-1,-7,0,-7,1,2025-02-19 14:37:15.408
-1,-1,-1,-1,-7,0,-7,1,2025-02-19 14:37:15.420
-2,-2,1,0,-7,-1,1,-1,2025-02-19 14:37:15.433
-2,-2,1,0,-7,-1,1,-1,2025-02-19 14:37:15.442
0,-1,0,-1,-8,0,-4,-1,2025-02-19 14:37:15.453
-1,-1,-2,-3,-9,-3,-3,-3,2025-02-19 14:37:15.465
-1,-1,-2,-3,-9,-3,-3,-3,2025-02-19 14:37:15.476
-2,-2,0,-3,-8,-1,2,1,2025-02-19 14:37:15.490
-2,-2,0,-3,-8,-1,2,1,2025-02-19 14:37:15.499
-1,-1,-2,-2,-8,-2,0,-2,2025-02-19 14:37:15.510
-1,-1,-2,-2,-8,-2,0,-2,2025-02-19 14:37:15.521
0,1,-2,-1,-8,-2,-3,-2,2025-02-19 14:37:15.533
0,1,-2,-1,-8,-2,-3,-2,2025-02-19 14:37:15.544
-1,0,0,-1,-8,-2,0,-1,2025-02-19 14:37:15.554
-1,0,0,-1,-8,-2,0,-1,2025-02-19 14:37:15.565
-1,-1,-1,-1,-6,5,2,-1,2025-02-19 14:37:15.577
-2,0,-1,0,-9,0,-1,0,2025-02-19 14:37:15.590
-2,0,-1,0,-9,0,-1,0,2025-02-19 14:37:15.601
0,0,-1,-2,-7,-1,-1,0,2025-02-19 14:37:15.610
0,0,-1,-2,-7,-1,-1,0,2025-02-19 14:37:15.621
0,-2,-1,0,-9,-4,0,-1,2025-02-19 14:37:15.633
-2,0,-1,-1,-7,1,-2,-2,2025-02-19 14:37:15.644
-2,0,-1,-1,-7,1,-2,-2,2025-02-19 14:37:15.655
-2,-1,-2,0,-7,11,-1,0,2025-02-19 14:37:15.666
-2,-1,-2,0,-7,11,-1,0,2025-02-19 14:37:15.678
-1,0,0,-1,-10,-13,-1,-2,2025-02-19 14:37:15.688
-1,-1,0,-2,-8,1,-1,-1,2025-02-19 14:37:15.700
-1,-2,0,-1,-8,-4,0,1,2025-02-19 14:37:15.713
-1,-2,0,-1,-8,-4,0,1,2025-02-19 14:37:15.722
-2,-2,-1,0,-11,-7,-3,-3,2025-02-19 14:37:15.733
-2,-2,-1,0,-11,-7,-3,-3,2025-02-19 14:37:15.747
0,0,-3,0,-8,-3,-2,0,2025-02-19 14:37:15.755
-2,-1,-1,0,-8,-4,1,-2,2025-02-19 14:37:15.766
-2,-1,-1,0,-8,-4,1,-2,2025-02-19 14:37:15.777
1,-2,-2,-2,-8,4,-3,-1,2025-02-19 14:37:15.788
1,-2,-2,-2,-8,4,-3,-1,2025-02-19 14:37:15.799
-2,-1,-1,0,-7,-11,-2,0,2025-02-19 14:37:15.814
-2,-1,-1,0,-7,-11,-2,0,2025-02-19 14:37:15.822
-2,-1,-3,-1,-6,4,0,-1,2025-02-19 14:37:15.833
-2,-1,-3,-1,-6,4,0,-1,2025-02-19 14:37:15.844
0,-2,0,-2,-8,-4,-1,-1,2025-02-19 14:37:15.855
0,-2,0,-2,-8,-4,-1,-1,2025-02-19 14:37:15.867
0,1,0,-2,-8,0,0,-2,2025-02-19 14:37:15.878
-2,-2,-2,-2,-8,-4,-1,-1,2025-02-19 14:37:15.889
-2,-2,-2,-2,-8,-4,-1,-1,2025-02-19 14:37:15.902
-1,-1,-1,-2,-9,1,-2,-1,2025-02-19 14:37:15.914
-1,-1,-1,-2,-9,1,-2,-1,2025-02-19 14:37:15.923
-2,-1,-1,1,-7,0,-4,-2,2025-02-19 14:37:15.934
-2,-1,0,-1,-8,-2,-3,-2,2025-02-19 14:37:15.946
-2,-1,0,-1,-8,-2,-3,-2,2025-02-19 14:37:15.956
-2,-1,-2,-2,-9,4,-1,-3,2025-02-19 14:37:15.967
-2,-1,-2,-2,-9,4,-1,-3,2025-02-19 14:37:15.979
-1,0,-1,-2,-6,-2,-9,-4,2025-02-19 14:37:15.990
-1,0,-1,-2,-6,-2,-9,-4,2025-02-19 14:37:16.001
-1,-1,0,0,-10,-5,1,2,2025-02-19 14:37:16.012
-3,-1,0,-2,-6,-4,-2,-3,2025-02-19 14:37:16.026
0,-1,-3,-1,-9,-12,1,-1,2025-02-19 14:37:16.034
0,-1,-3,-1,-9,-12,1,-1,2025-02-19 14:37:16.046
-1,-2,-2,-1,-7,2,3,-3,2025-02-19 14:37:16.059
-1,-3,-3,-3,-9,-2,-2,-2,2025-02-19 14:37:16.068
0,-1,1,1,-8,8,-3,0,2025-02-19 14:37:16.079
0,-2,-1,-2,-9,-2,5,1,2025-02-19 14:37:16.090
0,-2,-1,-2,-9,-2,5,1,2025-02-19 14:37:16.101
0,0,0,-3,-7,14,-1,-2,2025-02-19 14:37:16.112
-2,0,-3,-1,-7,0,2,-2,2025-02-19 14:37:16.124
0,-1,-1,0,-8,-6,1,0,2025-02-19 14:37:16.149
0,-1,-1,0,-8,-6,1,0,2025-02-19 14:37:16.153
0,-1,-1,0,-8,-6,1,0,2025-02-19 14:37:16.158
0,-1,-1,0,-8,-6,1,0,2025-02-19 14:37:16.165
-2,-1,0,0,-9,-8,-7,-1,2025-02-19 14:37:16.177
0,0,0,0,-7,1,5,0,2025-02-19 14:37:16.188
-2,-1,0,0,-8,-5,2,-2,2025-02-19 14:37:16.199
-1,-1,-2,-1,-8,-2,0,-1,2025-02-19 14:37:16.213
-1,-1,-2,-1,-8,-2,0,-1,2025-02-19 14:37:16.221
-2,-2,-1,-1,-7,-23,-1,-2,2025-02-19 14:37:16.232
-1,-3,-2,-3,-7,-1,-2,-3,2025-02-19 14:37:16.246
-2,-3,-1,-2,-8,4,-1,-2,2025-02-19 14:37:16.254
0,0,-2,-3,-7,2,0,-1,2025-02-19 14:37:16.266
0,0,-2,-3,-7,2,0,-1,2025-02-19 14:37:16.277
0,0,-2,-3,-7,2,0,-1,2025-02-19 14:37:16.288
-1,0,0,-1,-8,-1,1,0,2025-02-19 14:37:16.299
0,-2,0,-1,-5,1,1,-1,2025-02-19 14:37:16.311
-2,-1,-2,0,-8,1,-4,0,2025-02-19 14:37:16.322
-2,-1,-2,0,-8,1,-4,0,2025-02-19 14:37:16.333
-2,-3,-1,-1,-7,2,0,-2,2025-02-19 14:37:16.347
-2,0,0,0,-7,0,-2,-1,2025-02-19 14:37:16.356
-2,0,0,0,-7,0,-2,-1,2025-02-19 14:37:16.369
1,-1,-2,-1,-9,2,0,0,2025-02-19 14:37:16.378
-1,-2,-2,-1,-8,-3,-4,-1,2025-02-19 14:37:16.389
-1,-2,-2,-1,-8,-3,-4,-1,2025-02-19 14:37:16.400
-1,0,-1,-2,-8,1,-2,-1,2025-02-19 14:37:16.411
-1,0,-1,-2,-8,1,-2,-1,2025-02-19 14:37:16.422
0,-1,-1,0,-7,-2,1,-1,2025-02-19 14:37:16.434
0,-1,-1,0,-7,-2,1,-1,2025-02-19 14:37:16.445
0,-1,0,-1,-8,2,-1,-1,2025-02-19 14:37:16.458
0,-1,0,-1,-8,2,-1,-1,2025-02-19 14:37:16.467
-1,0,0,-2,-9,-3,-3,-1,2025-02-19 14:37:16.478
-1,0,0,-2,-9,-3,-3,-1,2025-02-19 14:37:16.489
-1,0,-2,-1,-8,-1,0,-1,2025-02-19 14:37:16.500
-2,-1,-2,0,-9,0,-4,-2,2025-02-19 14:37:16.512
-2,-1,-2,0,-9,0,-4,-2,2025-02-19 14:37:16.525
-3,-1,-1,-1,-8,0,-1,0,2025-02-19 14:37:16.534
-3,-1,-1,-1,-8,0,-1,0,2025-02-19 14:37:16.546
-1,-2,-1,0,-9,0,0,0,2025-02-19 14:37:16.560
0,-3,-1,-3,-8,-2,1,0,2025-02-19 14:37:16.569
0,-3,-1,-3,-8,-2,1,0,2025-02-19 14:37:16.580
-3,-1,-4,-2,-7,-3,0,-1,2025-02-19 14:37:16.591
-3,-1,-4,-2,-7,-3,0,-1,2025-02-19 14:37:16.602
-1,-2,-2,-2,-8,-1,-3,-1,2025-02-19 14:37:16.614
1,1,-1,-3,-7,-1,-3,-1,2025-02-19 14:37:16.625
0,1,-1,-3,-8,-2,0,-2,2025-02-19 14:37:16.636
0,1,-1,-3,-8,-2,0,-2,2025-02-19 14:37:16.648
0,-1,-2,-1,-8,-1,0,0,2025-02-19 14:37:16.662
-1,-2,-1,-1,-5,-1,-3,-1,2025-02-19 14:37:16.673
-1,-2,-1,-1,-5,-1,-3,-1,2025-02-19 14:37:16.683
0,-3,-2,-1,-7,-2,-1,-1,2025-02-19 14:37:16.693
0,-3,-2,-1,-7,-2,-1,-1,2025-02-19 14:37:16.704
-1,-2,-2,1,-8,-2,1,-1,2025-02-19 14:37:16.715
-1,-2,-2,1,-8,-2,1,-1,2025-02-19 14:37:16.727
0,-1,-1,0,-7,-1,-2,-2,2025-02-19 14:37:16.738
-3,-2,-2,-1,-9,-1,2,-2,2025-02-19 14:37:16.749
-3,-2,-2,-1,-9,-1,2,-2,2025-02-19 14:37:16.764
-1,-1,-1,-1,-8,1,-2,0,2025-02-19 14:37:16.773
-1,-1,-1,-1,-8,1,-2,0,2025-02-19 14:37:16.783
-1,-3,1,-2,-8,-1,-2,-1,2025-02-19 14:37:16.794
-3,-3,-3,-1,-9,-2,-2,-3,2025-02-19 14:37:16.805
-1,0,-1,-1,-8,0,-2,0,2025-02-19 14:37:16.817
-2,-1,-3,-1,-7,-1,0,0,2025-02-19 14:37:16.830
-2,-1,-3,-1,-7,-1,0,0,2025-02-19 14:37:16.839
-2,-1,-3,-1,-7,-1,0,0,2025-02-19 14:37:16.850
-2,-1,-1,-1,-9,-2,-2,-2,2025-02-19 14:37:16.864
-2,-2,-3,-2,-8,-4,-2,-3,2025-02-19 14:37:16.872
-2,-2,0,-3,-7,-2,2,-1,2025-02-19 14:37:16.883
2,-1,-1,0,-6,-1,-1,0,2025-02-19 14:37:16.895
2,-1,-1,0,-6,-1,-1,0,2025-02-19 14:37:16.906
-1,-1,-1,0,-7,0,-2,0,2025-02-19 14:37:16.917
-1,-1,-1,-2,-7,-2,-3,-2,2025-02-19 14:37:16.928
-2,-1,-3,-2,-7,-1,-1,-2,2025-02-19 14:37:16.939
-1,-1,-1,-1,-8,-2,-3,-1,2025-02-19 14:37:16.950
-1,-1,-1,-1,-8,-2,-3,-1,2025-02-19 14:37:16.962
2,0,-1,0,-8,0,-2,-2,2025-02-19 14:37:16.976
-1,-1,-1,1,-7,0,0,-1,2025-02-19 14:37:16.987
-1,-1,-1,0,-7,0,0,-1,2025-02-19 14:37:16.995
-1,-1,-1,0,-7,0,0,-1,2025-02-19 14:37:17.006
-1,0,0,0,-9,-1,0,-1,2025-02-19 14:37:17.017
-1,0,0,0,-9,-1,0,-1,2025-02-19 14:37:17.029
-1,-3,-2,0,-9,-2,2,-1,2025-02-19 14:37:17.040
-1,-2,-2,-3,-8,-3,-2,-2,2025-02-19 14:37:17.051
-1,-1,-1,-1,-8,1,-1,0,2025-02-19 14:37:17.061
-2,-1,0,-1,-9,0,-2,-3,2025-02-19 14:37:17.075
-2,-1,0,-1,-9,0,-2,-3,2025-02-19 14:37:17.084
-3,-2,-2,-1,-7,-3,-1,0,2025-02-19 14:37:17.095
-1,0,-3,0,-7,0,1,2,2025-02-19 14:37:17.106
-1,-1,-4,-1,-8,-1,1,-1,2025-02-19 14:37:17.117
-2,-1,0,-1,-8,-2,-2,0,2025-02-19 14:37:17.129
-2,-1,0,-1,-8,-2,-2,0,2025-02-19 14:37:17.142
-1,-2,-1,-1,-7,0,-1,-3,2025-02-19 14:37:17.151
-2,-2,-2,-2,-9,-2,-2,-1,2025-02-19 14:37:17.162
0,-1,-2,0,-8,1,-2,-1,2025-02-19 14:37:17.173
0,-1,-2,0,-8,1,-2,-1,2025-02-19 14:37:17.187
-1,1,-1,-3,-9,-3,-2,-1,2025-02-19 14:37:17.197
-1,1,-1,-3,-9,-3,-2,-1,2025-02-19 14:37:17.207
0,-2,-1,-1,-8,-1,0,-2,2025-02-19 14:37:17.219
-2,-2,-2,-1,-8,-2,0,0,2025-02-19 14:37:17.230
-1,1,-1,-2,-9,-1,-2,0,2025-02-19 14:37:17.241
-1,-2,-1,0,-8,-1,-3,-1,2025-02-19 14:37:17.252
-1,-2,-2,-1,-7,-2,-2,-1,2025-02-19 14:37:17.264
-2,0,-2,-1,-8,-3,-1,-2,2025-02-19 14:37:17.275
-2,0,-2,-1,-8,-3,-1,-2,2025-02-19 14:37:17.287
-2,-1,-1,-2,-8,1,0,-1,2025-02-19 14:37:17.298
1,0,-1,-1,-6,-2,-2,0,2025-02-19 14:37:17.307
-1,-1,-2,0,-6,0,-2,0,2025-02-19 14:37:17.318
-1,-1,-2,0,-6,0,-2,0,2025-02-19 14:37:17.330
-2,-2,-3,-1,-9,-1,-1,-1,2025-02-19 14:37:17.341
-2,-2,-3,-1,-9,-1,-1,-1,2025-02-19 14:37:17.352
-1,1,0,-1,-7,0,-2,-1,2025-02-19 14:37:17.364
-1,-4,0,-2,-10,-3,-1,0,2025-02-19 14:37:17.375
-1,-4,0,-2,-10,-3,-1,0,2025-02-19 14:37:17.388
-1,-2,2,-2,-8,-2,0,-3,2025-02-19 14:37:17.398
-1,-2,2,-2,-8,-2,0,-3,2025-02-19 14:37:17.409
-1,-1,-2,-1,-9,1,-3,-2,2025-02-19 14:37:17.419
-2,0,0,-2,-9,-2,0,-1,2025-02-19 14:37:17.431
-2,-2,0,-2,-8,-3,0,-1,2025-02-19 14:37:17.442
0,1,-2,0,-7,-1,-1,-1,2025-02-19 14:37:17.455
0,1,-2,0,-7,-1,-1,-1,2025-02-19 14:37:17.464
-1,0,-3,0,-9,0,2,-3,2025-02-19 14:37:17.476
-1,0,-3,0,-9,0,2,-3,2025-02-19 14:37:17.486
-1,-3,0,1,-8,-1,-1,-2,2025-02-19 14:37:17.499
-1,-3,0,1,-8,-1,-1,-2,2025-02-19 14:37:17.508
-1,-2,-2,-3,-8,1,-2,0,2025-02-19 14:37:17.519
-1,-2,-2,-3,-8,1,-2,0,2025-02-19 14:37:17.531
-1,1,-1,-2,-8,-3,-2,-2,2025-02-19 14:37:17.542
0,-3,-4,1,-7,0,-1,0,2025-02-19 14:37:17.553
0,2,0,0,-7,-1,-4,-1,2025-02-19 14:37:17.564
0,0,0,-1,-8,-2,2,3,2025-02-19 14:37:17.575
0,0,0,-1,-8,-2,2,3,2025-02-19 14:37:17.587
0,0,-4,-1,-9,0,0,-2,2025-02-19 14:37:17.600
-1,-2,1,-1,-8,-1,-2,-2,2025-02-19 14:37:17.616
-1,-2,1,-1,-8,-1,-2,-2,2025-02-19 14:37:17.626
-2,0,-1,-1,-9,0,-3,-3,2025-02-19 14:37:17.631
0,0,-3,-2,-7,-2,-3,-2,2025-02-19 14:37:17.642
0,0,-3,-2,-7,-2,-3,-2,2025-02-19 14:37:17.653
-1,-1,-1,0,-7,-1,-4,2,2025-02-19 14:37:17.664
-3,-2,1,-1,-9,-2,1,-2,2025-02-19 14:37:17.675
-3,-2,1,-1,-9,-2,1,-2,2025-02-19 14:37:17.686
-1,-2,-1,-1,-8,0,-2,-2,2025-02-19 14:37:17.697
-3,-3,-1,-3,-8,0,-4,-2,2025-02-19 14:37:17.711
-2,-2,-1,-1,-7,-3,-5,0,2025-02-19 14:37:17.720
-2,-1,-3,0,-9,-3,-1,-2,2025-02-19 14:37:17.731
0,-1,-2,-1,-9,0,1,-1,2025-02-19 14:37:17.742
0,-1,0,0,-10,0,-1,-1,2025-02-19 14:37:17.753
-1,-2,-3,-2,-6,0,0,-3,2025-02-19 14:37:17.777
-1,-2,-3,-2,-6,0,0,-3,2025-02-19 14:37:17.785
-1,0,0,-2,-7,1,-1,-1,2025-02-19 14:37:17.790
-2,-1,-1,-1,-9,-2,-1,-3,2025-02-19 14:37:17.798
-2,-1,-1,-1,-9,-2,-1,-3,2025-02-19 14:37:17.809
-1,0,-1,-3,-9,-1,1,-1,2025-02-19 14:37:17.821
-1,0,-1,-3,-9,-1,1,-1,2025-02-19 14:37:17.831
-3,0,0,-1,-8,-3,0,-1,2025-02-19 14:37:17.842
-1,0,-1,-1,-10,-2,-2,-1,2025-02-19 14:37:17.854
-2,-2,-2,-2,-7,0,-2,-1,2025-02-19 14:37:17.864
0,-4,-1,0,-8,-1,-2,0,2025-02-19 14:37:17.875
0,-4,-1,0,-8,-1,-2,0,2025-02-19 14:37:17.887
-1,-2,-2,-2,-8,-3,-2,-2,2025-02-19 14:37:17.898
-1,0,-1,0,-7,1,-2,-2,2025-02-19 14:37:17.909
-2,-2,-1,-1,-6,-1,2,-2,2025-02-19 14:37:17.923
-3,-2,-1,0,-7,0,-4,-2,2025-02-19 14:37:17.932
-1,-1,0,-1,-11,-3,0,-2,2025-02-19 14:37:17.943
-1,-2,1,-2,-9,-2,-2,-2,2025-02-19 14:37:17.953
0,0,-2,0,-8,0,0,-1,2025-02-19 14:37:17.965
0,0,-1,0,-8,-2,-1,-1,2025-02-19 14:37:17.976
-1,1,-3,0,-7,0,0,0,2025-02-19 14:37:17.987
-4,-2,-2,-1,-8,-2,-1,-2,2025-02-19 14:37:17.998
-4,-2,-2,-1,-8,-2,-1,-2,2025-02-19 14:37:18.009
-2,-3,1,-2,-7,0,0,1,2025-02-19 14:37:18.021
0,-1,-5,-1,-8,0,1,-1,2025-02-19 14:37:18.032
-1,-2,-2,0,-8,0,0,-1,2025-02-19 14:37:18.043
-1,0,-2,-1,-8,-1,-3,0,2025-02-19 14:37:18.054
-1,0,-2,-1,-8,-1,-3,0,2025-02-19 14:37:18.065
0,-1,-1,-2,-8,-3,-3,0,2025-02-19 14:37:18.076
-1,-1,-2,-1,-8,0,0,-1,2025-02-19 14:37:18.088
-2,-1,0,-1,-8,-1,-1,-2,2025-02-19 14:37:18.099
-2,-1,0,-1,-8,-1,-1,-2,2025-02-19 14:37:18.111
-2,0,0,0,-7,-1,-1,-3,2025-02-19 14:37:18.122
-2,0,0,0,-7,-1,-1,-3,2025-02-19 14:37:18.133
0,0,-3,-3,-9,-2,-5,-1,2025-02-19 14:37:18.144
-1,0,-3,-1,-8,-3,1,1,2025-02-19 14:37:18.156
-1,-1,0,-2,-9,0,-2,1,2025-02-19 14:37:18.167
0,1,-1,1,-9,-1,1,-2,2025-02-19 14:37:18.178
0,1,-1,1,-9,-1,1,-2,2025-02-19 14:37:18.189
-1,-1,-1,-1,-7,0,4,0,2025-02-19 14:37:18.201
-1,-1,-1,-1,-7,0,4,0,2025-02-19 14:37:18.212
-1,-2,-2,2,-6,-1,1,-1,2025-02-19 14:37:18.224
-2,-1,0,-1,-9,-1,-4,-1,2025-02-19 14:37:18.235
-2,-1,0,-1,-9,-1,-4,-1,2025-02-19 14:37:18.246
0,-1,-1,-1,-7,-1,-4,-1,2025-02-19 14:37:18.257
0,-1,-1,-1,-7,-1,-4,-1,2025-02-19 14:37:18.268
-2,-1,-2,-2,-7,-1,-1,-1,2025-02-19 14:37:18.279
-1,0,0,-1,-7,-2,1,-3,2025-02-19 14:37:18.291
-1,-1,-1,0,-9,-1,1,-3,2025-02-19 14:37:18.302
-1,-3,-1,-1,-9,1,-1,1,2025-02-19 14:37:18.313
2,-2,-1,-1,-8,0,-2,0,2025-02-19 14:37:18.324
-2,-1,-1,1,-8,-2,0,0,2025-02-19 14:37:18.336
0,0,-3,-1,-7,1,1,-1,2025-02-19 14:37:18.346
-1,-3,-2,-4,-8,-2,-1,-1,2025-02-19 14:37:18.358
-1,-3,-2,-4,-8,-2,-1,-1,2025-02-19 14:37:18.369
-2,0,0,-2,-7,-1,-5,-1,2025-02-19 14:37:18.380
-2,0,0,-2,-7,-1,-5,-1,2025-02-19 14:37:18.391
0,-1,-2,-1,-10,-2,2,-2,2025-02-19 14:37:18.403
-1,1,0,-1,-7,0,-3,-1,2025-02-19 14:37:18.414
0,-1,-1,-1,-8,-1,-3,1,2025-02-19 14:37:18.426
0,-1,-1,0,-7,-1,-1,0,2025-02-19 14:37:18.436
0,-1,-1,0,-7,-1,-1,0,2025-02-19 14:37:18.448
-3,-2,-2,-1,-9,-1,1,-3,2025-02-19 14:37:18.458
-3,-2,-2,-1,-9,-1,1,-3,2025-02-19 14:37:18.470
-2,-1,-2,-3,-8,-2,-4,0,2025-02-19 14:37:18.481
-2,-1,-2,-3,-8,-2,-4,0,2025-02-19 14:37:18.492
-1,0,-2,-1,-9,-1,-2,-3,2025-02-19 14:37:18.503
-1,0,-2,-1,-9,-1,-2,-3,2025-02-19 14:37:18.514
-2,-3,-5,-2,-9,-2,-2,-2,2025-02-19 14:37:18.526
-1,-2,-2,0,-8,-2,-3,-1,2025-02-19 14:37:18.537
-1,0,1,-2,-7,1,1,-1,2025-02-19 14:37:18.548
0,0,-2,-1,-8,-1,-1,1,2025-02-19 14:37:18.559
0,0,-2,-1,-8,-1,-1,1,2025-02-19 14:37:18.570
0,-2,-1,0,-8,0,2,-2,2025-02-19 14:37:18.582
-2,-1,0,-3,-9,-3,-2,-3,2025-02-19 14:37:18.592
-1,0,0,-1,-7,-1,-4,-1,2025-02-19 14:37:18.604
0,-2,-2,-1,-8,-1,0,-2,2025-02-19 14:37:18.615
0,-2,-2,-1,-8,-1,0,-2,2025-02-19 14:37:18.627
-2,1,0,-1,-8,0,-1,0,2025-02-19 14:37:18.637
-1,0,-2,-1,-8,-1,-2,-2,2025-02-19 14:37:18.648
0,-1,-2,1,-7,1,-2,-1,2025-02-19 14:37:18.660
0,-1,-2,1,-7,1,-2,-1,2025-02-19 14:37:18.671
-3,-2,-1,0,-9,-1,-3,1,2025-02-19 14:37:18.682
-3,-2,-1,0,-9,-1,-3,1,2025-02-19 14:37:18.693
-1,-1,-1,-1,-10,-1,1,0,2025-02-19 14:37:18.705
-2,-3,-2,-3,-8,-3,-2,-1,2025-02-19 14:37:18.716
-2,-2,-2,-2,-7,0,2,0,2025-02-19 14:37:18.727
-2,-2,-1,-1,-6,0,-2,0,2025-02-19 14:37:18.738
-2,-2,-1,-1,-6,0,-2,0,2025-02-19 14:37:18.749
-4,0,-2,0,-8,-3,-1,-1,2025-02-19 14:37:18.760
-1,-1,-2,-2,-8,1,0,0,2025-02-19 14:37:18.771
0,-1,-2,-3,-10,-4,-1,-1,2025-02-19 14:37:18.782
-1,0,-2,-1,-8,0,1,1,2025-02-19 14:37:18.794
1,0,-1,-2,-7,0,3,-3,2025-02-19 14:37:18.805
-2,0,-3,0,-9,0,-2,-3,2025-02-19 14:37:18.816
-1,-2,0,-2,-8,-1,-1,-1,2025-02-19 14:37:18.828
-2,-2,-1,0,-7,-1,0,-1,2025-02-19 14:37:18.838
-1,-2,-1,0,-7,-2,-2,-1,2025-02-19 14:37:18.852
0,0,-1,-2,-9,-1,2,-2,2025-02-19 14:37:18.861
0,0,-1,-2,-9,-1,2,-2,2025-02-19 14:37:18.872
-1,0,-1,0,-8,0,-1,1,2025-02-19 14:37:18.883
-1,-2,0,-3,-8,0,0,-2,2025-02-19 14:37:18.894
-1,-4,-3,-2,-7,-1,-3,-1,2025-02-19 14:37:18.905
0,0,-3,-1,-7,0,-3,-2,2025-02-19 14:37:18.917
0,0,-3,-1,-7,0,-3,-2,2025-02-19 14:37:18.928
-2,-2,-3,-2,-7,-3,0,-1,2025-02-19 14:37:18.939
-1,-1,-2,-1,-7,-2,-1,-1,2025-02-19 14:37:18.950
-1,-1,0,-1,-9,-2,-5,-2,2025-02-19 14:37:18.964
-2,-2,-1,-1,-6,0,2,1,2025-02-19 14:37:18.975
-2,-1,0,-2,-7,1,-2,-2,2025-02-19 14:37:18.983
-2,-1,0,-2,-7,1,-2,-2,2025-02-19 14:37:18.995
-3,-2,-2,-1,-8,-2,-2,-2,2025-02-19 14:37:19.006
-1,0,-1,-2,-9,-2,1,0,2025-02-19 14:37:19.019
-1,0,-1,-2,-9,-2,1,0,2025-02-19 14:37:19.031
-1,-1,-2,1,-7,-2,1,2,2025-02-19 14:37:19.039
-1,-1,-2,1,-7,-2,1,2,2025-02-19 14:37:19.050
-2,-1,-1,-1,-7,0,-2,-1,2025-02-19 14:37:19.061
-2,-1,0,-1,-8,-1,-3,-1,2025-02-19 14:37:19.072
2,-2,0,0,-8,0,2,1,2025-02-19 14:37:19.083
0,-2,-2,-3,-7,-3,1,-2,2025-02-19 14:37:19.095
-2,0,-1,-2,-7,0,-2,-1,2025-02-19 14:37:19.106
-1,-1,1,-1,-8,0,-1,1,2025-02-19 14:37:19.117
-3,-2,-1,-2,-10,-4,-5,-2,2025-02-19 14:37:19.129
-1,-1,0,0,-7,0,1,0,2025-02-19 14:37:19.140
-1,0,0,1,-9,-1,-4,0,2025-02-19 14:37:19.151
0,-1,-2,0,-7,0,1,0,2025-02-19 14:37:19.162
0,-1,-2,0,-7,0,1,0,2025-02-19 14:37:19.173
-1,-1,-2,-1,-7,0,3,-2,2025-02-19 14:37:19.185
-1,-1,-2,-1,-7,0,3,-2,2025-02-19 14:37:19.196
1,-1,-2,0,-9,1,-1,-2,2025-02-19 14:37:19.207
0,-1,-2,1,-7,2,-4,0,2025-02-19 14:37:19.217
0,-1,-2,1,-7,2,-4,0,2025-02-19 14:37:19.228
-3,-2,-1,-2,-7,-2,-4,-2,2025-02-19 14:37:19.240
-3,-2,-1,-2,-7,-2,-4,-2,2025-02-19 14:37:19.251
-1,-2,0,-1,-8,-2,-1,-1,2025-02-19 14:37:19.263
-2,-2,-2,-2,-9,-3,-3,-1,2025-02-19 14:37:19.273
-1,-2,-2,-2,-9,-3,0,-2,2025-02-19 14:37:19.285
0,-1,-1,0,-8,0,-3,2,2025-02-19 14:37:19.296
-1,-1,-2,-2,-9,-3,0,-2,2025-02-19 14:37:19.307
-2,-3,-1,-1,-9,-1,-1,0,2025-02-19 14:37:19.319
-2,-3,-2,-2,-8,-1,1,0,2025-02-19 14:37:19.330
-1,0,-3,-2,-9,-2,-3,-2,2025-02-19 14:37:19.341
-1,0,-3,-2,-9,-2,-3,-2,2025-02-19 14:37:19.352
-2,-1,-1,-1,-8,-2,-2,-1,2025-02-19 14:37:19.363
-2,-1,-1,-1,-8,-2,-2,-1,2025-02-19 14:37:19.375
-2,-1,-1,-1,-8,-2,-2,-1,2025-02-19 14:37:19.385
0,0,0,1,-7,0,3,0,2025-02-19 14:37:19.396
-2,-2,0,-3,-7,0,0,0,2025-02-19 14:37:19.408
0,-1,-1,-1,-8,-1,-2,-2,2025-02-19 14:37:19.419
0,-1,-1,-1,-8,-1,-2,-2,2025-02-19 14:37:19.430
-2,-1,0,-2,-9,0,1,-1,2025-02-19 14:37:19.442
-2,-1,0,-2,-9,0,1,-1,2025-02-19 14:37:19.452
0,-2,-1,-2,-7,-1,1,0,2025-02-19 14:37:19.464
0,-2,-1,-2,-7,-1,1,0,2025-02-19 14:37:19.475
0,0,-2,0,-7,0,-2,-1,2025-02-19 14:37:19.485
0,0,-2,0,-7,0,-2,-1,2025-02-19 14:37:19.497
-2,-2,-1,-2,-6,-2,-2,-1,2025-02-19 14:37:19.508
-1,-3,-2,-1,-9,-2,-2,1,2025-02-19 14:37:19.519
-1,-3,-2,-1,-9,-2,-2,1,2025-02-19 14:37:19.530
0,0,-2,-2,-8,-1,-1,-2,2025-02-19 14:37:19.542
0,0,-2,-2,-8,-1,-1,-2,2025-02-19 14:37:19.553
-1,1,-2,-1,-8,1,-1,-2,2025-02-19 14:37:19.564
-1,-1,-2,0,-6,1,-1,-1,2025-02-19 14:37:19.575
-2,-2,-1,0,-9,-2,1,-1,2025-02-19 14:37:19.587
-2,-1,0,-1,-7,-2,-1,0,2025-02-19 14:37:19.597
-2,-1,0,-1,-7,-2,-1,0,2025-02-19 14:37:19.608
-2,1,1,-1,-7,0,-2,-1,2025-02-19 14:37:19.620
-2,1,1,-1,-7,0,-2,-1,2025-02-19 14:37:19.631
0,-2,-1,1,-10,0,-2,0,2025-02-19 14:37:19.643
0,-2,-1,1,-10,0,-2,0,2025-02-19 14:37:19.653
-1,-2,-2,0,-8,-2,-1,-2,2025-02-19 14:37:19.664
-1,-2,-2,0,-8,-2,-1,-2,2025-02-19 14:37:19.675
0,-1,0,-2,-7,0,0,0,2025-02-19 14:37:19.687
0,-2,-1,-1,-8,-1,-1,-1,2025-02-19 14:37:19.698
-2,0,-1,-1,-7,-1,-2,-1,2025-02-19 14:37:19.709
2,-3,-1,0,-8,-1,1,1,2025-02-19 14:37:19.721
2,-3,-1,0,-8,-1,1,1,2025-02-19 14:37:19.736
0,-2,-1,-1,-9,-2,1,-1,2025-02-19 14:37:19.746
-1,-4,-3,-2,-9,-2,0,-2,2025-02-19 14:37:19.756
-3,-1,-2,-3,-10,-1,-3,-3,2025-02-19 14:37:19.765
-2,0,-2,0,-9,-2,1,-1,2025-02-19 14:37:19.777
-1,-2,-3,-2,-8,-1,3,-1,2025-02-19 14:37:19.788
-2,-2,-1,-2,-10,-3,-5,-4,2025-02-19 14:37:19.798
-1,-1,2,0,-9,0,-4,1,2025-02-19 14:37:19.810
1,-1,-3,-2,-9,0,0,-1,2025-02-19 14:37:19.821
1,-1,-3,-2,-9,0,0,-1,2025-02-19 14:37:19.832
-1,0,0,-2,-8,-3,-2,0,2025-02-19 14:37:19.844
