Raw EMG - Pod01,Raw EMG - Pod02,Raw EMG - Pod03,Raw EMG - Pod04,Raw EMG - Pod05,Raw EMG - Pod06,Raw EMG - Pod07,Raw EMG - Pod08,Timestamp,activeCube Cube
-3,-1,-2,-1,-1,-1,-2,-1,2025-02-24 12:17:43.539
-3,-1,-2,-1,-1,-1,-2,-1,2025-02-24 12:17:43.547
-3,-1,-2,-1,-1,-1,-2,-1,2025-02-24 12:17:43.555
-2,-1,1,-2,-3,-1,-1,0,2025-02-24 12:17:43.567
0,0,-2,-1,-2,0,-1,-2,2025-02-24 12:17:43.578
-1,-1,1,-1,-1,0,-1,-1,2025-02-24 12:17:43.589
-1,0,-3,0,-2,-1,-1,-2,2025-02-24 12:17:43.601
-1,0,-3,0,-2,-1,-1,-2,2025-02-24 12:17:43.612
0,0,-3,0,-1,-2,0,-2,2025-02-24 12:17:43.623
0,0,-1,-2,-2,-2,0,-2,2025-02-24 12:17:43.637
0,-1,1,0,-3,-2,0,-1,2025-02-24 12:17:43.645
0,-1,1,0,-3,-2,0,-1,2025-02-24 12:17:43.657
-1,-1,-3,0,-2,0,-2,0,2025-02-24 12:17:43.668
-1,-1,-3,0,-2,0,-2,0,2025-02-24 12:17:43.679
1,-1,1,-1,-3,-1,-1,1,2025-02-24 12:17:43.691
-1,0,-2,-1,-3,-1,0,-3,2025-02-24 12:17:43.701
-1,-1,-1,1,-3,-3,-1,-1,2025-02-24 12:17:43.712
-2,1,-1,-2,-2,-3,-1,-2,2025-02-24 12:17:43.724
-2,1,-1,-2,-2,-3,-1,-2,2025-02-24 12:17:43.870
0,-2,-1,0,-2,-1,-1,-1,2025-02-24 12:17:43.876
-1,1,-2,1,-2,0,0,0,2025-02-24 12:17:43.881
-1,1,-2,1,-2,0,0,0,2025-02-24 12:17:43.891
-2,-2,-2,-2,-2,0,-3,0,2025-02-24 12:17:43.902
-2,-2,-2,-2,-2,0,-3,0,2025-02-24 12:17:43.913
1,-2,-2,-2,-3,-2,-1,-2,2025-02-24 12:17:43.925
-1,-1,1,-1,-2,0,-1,-1,2025-02-24 12:17:43.936
0,-1,-1,-1,-3,-3,-1,-1,2025-02-24 12:17:43.947
-2,-1,0,0,-1,-2,0,-2,2025-02-24 12:17:43.958
-2,-1,0,0,-1,-2,0,-2,2025-02-24 12:17:43.969
-1,0,0,-1,-2,0,0,-1,2025-02-24 12:17:43.980
-1,-2,-2,-2,-2,-2,-2,0,2025-02-24 12:17:43.991
0,-2,-1,-2,-3,-2,-1,0,2025-02-24 12:17:44.002
-1,1,0,-2,-2,-1,-1,-1,2025-02-24 12:17:44.014
1,-2,-2,0,-1,-1,-2,-1,2025-02-24 12:17:44.025
-1,-1,-1,0,-2,0,-1,1,2025-02-24 12:17:44.036
-2,0,0,-1,-3,-2,0,0,2025-02-24 12:17:44.047
-1,1,0,1,-1,-3,-2,-2,2025-02-24 12:17:44.058
-1,-2,-2,0,-3,-2,-2,-1,2025-02-24 12:17:44.069
-1,0,-4,-2,-2,0,-2,-3,2025-02-24 12:17:44.081
-3,-3,-2,-1,-1,-1,-2,0,2025-02-24 12:17:44.092
-1,-2,-2,-1,-2,0,0,0,2025-02-24 12:17:44.104
-2,1,0,-1,-1,-2,-2,-1,2025-02-24 12:17:44.114
0,-2,-2,-1,-3,-1,0,0,2025-02-24 12:17:44.125
1,0,-1,0,-3,-2,-3,-1,2025-02-24 12:17:44.136
1,0,-1,0,-3,-2,-3,-1,2025-02-24 12:17:44.147
0,0,-2,-1,-1,1,-2,-2,2025-02-24 12:17:44.159
0,0,-2,-1,-1,1,-2,-2,2025-02-24 12:17:44.170
-3,0,2,-2,-2,-1,-1,0,2025-02-24 12:17:44.181
-3,0,2,-2,-2,-1,-1,0,2025-02-24 12:17:44.193
0,-1,0,-3,-1,-1,-1,-2,2025-02-24 12:17:44.204
0,0,-1,-2,-4,0,-1,-2,2025-02-24 12:17:44.215
0,0,-1,-2,-4,0,-1,-2,2025-02-24 12:17:44.226
0,0,-2,-2,-1,0,0,-1,2025-02-24 12:17:44.237
-3,-2,0,-1,-3,-3,-1,-2,2025-02-24 12:17:44.248
-1,0,-3,-3,-2,-1,0,-1,2025-02-24 12:17:44.260
1,-1,-2,0,-2,-1,-2,-2,2025-02-24 12:17:44.271
-1,-2,-3,0,-2,0,-1,-1,2025-02-24 12:17:44.282
-6,-12,2,-5,-1,-2,-2,-1,2025-02-24 12:17:44.293
1,1,1,-2,-1,-2,-2,-2,2025-02-24 12:17:44.305
1,0,-2,1,-3,-1,-1,1,2025-02-24 12:17:44.316
-2,-3,-1,0,-3,-2,-3,-1,2025-02-24 12:17:44.327
-2,-3,-1,0,-3,-2,-3,-1,2025-02-24 12:17:44.338
-2,-1,0,-3,-2,-1,-1,-1,2025-02-24 12:17:44.349
-1,1,-4,-1,-2,-2,-1,0,2025-02-24 12:17:44.360
-2,1,0,1,-2,-1,-1,0,2025-02-24 12:17:44.372
-2,1,0,1,-2,-1,-1,0,2025-02-24 12:17:44.383
0,-2,-1,0,0,-2,-2,0,2025-02-24 12:17:44.394
0,-2,-1,0,0,-2,-2,0,2025-02-24 12:17:44.406
1,-1,-1,1,-1,1,0,-1,2025-02-24 12:17:44.418
1,-1,-1,1,-1,1,0,-1,2025-02-24 12:17:44.429
-1,-1,-3,-1,-1,-1,-2,-2,2025-02-24 12:17:44.441
-3,0,-1,-3,-6,-4,0,-2,2025-02-24 12:17:44.452
-3,0,-1,-3,-6,-4,0,-2,2025-02-24 12:17:44.464
3,2,-4,-1,-3,-1,-1,0,2025-02-24 12:17:44.476
-2,1,7,4,4,2,1,-1,2025-02-24 12:17:44.488
-1,-4,-9,-4,-9,-4,-3,-2,2025-02-24 12:17:44.499
1,6,29,4,2,-1,-2,-1,2025-02-24 12:17:44.510
-2,0,12,-6,-1,0,0,-1,2025-02-24 12:17:44.522
-1,-5,-25,-5,-4,0,-1,-3,2025-02-24 12:17:44.533
2,-1,-1,-3,0,0,1,-1,2025-02-24 12:17:44.544
-5,-6,-33,-1,-7,-2,-1,-3,2025-02-24 12:17:44.556
-1,5,4,1,-9,-3,0,-1,2025-02-24 12:17:44.566
1,1,12,-1,-8,-1,-1,-2,2025-02-24 12:17:44.577
0,-2,-5,0,-3,1,0,1,2025-02-24 12:17:44.589
4,35,15,-3,-6,0,1,0,2025-02-24 12:17:44.600
-4,-8,16,-2,-9,0,-1,0,2025-02-24 12:17:44.611
-4,-8,16,-2,-9,0,-1,0,2025-02-24 12:17:44.622
1,-6,-3,-6,-25,0,0,-3,2025-02-24 12:17:44.633
1,-6,-3,-6,-25,0,0,-3,2025-02-24 12:17:44.645
-1,-7,-3,-2,-23,-1,-1,0,2025-02-24 12:17:44.656
0,3,-1,-1,-15,0,-2,-3,2025-02-24 12:17:44.667
-3,-9,-13,1,-5,-3,-2,0,2025-02-24 12:17:44.678
-3,-8,-1,-1,0,0,-1,0,2025-02-24 12:17:44.689
-3,-8,-1,-1,0,0,-1,0,2025-02-24 12:17:44.700
-4,3,5,-8,-9,-2,-3,-3,2025-02-24 12:17:44.711
-4,-10,-18,3,9,2,1,1,2025-02-24 12:17:44.722
-4,-10,-18,3,9,2,1,1,2025-02-24 12:17:44.734
3,4,-2,1,-24,-1,0,-1,2025-02-24 12:17:44.745
1,1,4,0,-12,-1,1,-1,2025-02-24 12:17:44.756
1,1,4,0,-12,-1,1,-1,2025-02-24 12:17:44.767
0,-1,-6,-3,-8,-2,-2,-2,2025-02-24 12:17:44.778
0,1,-4,-3,-1,-3,0,-2,2025-02-24 12:17:44.789
-1,-3,-7,0,-4,-3,-1,-2,2025-02-24 12:17:44.801
-3,-6,-3,3,-1,-2,-1,-1,2025-02-24 12:17:44.812
-3,-6,-3,3,-1,-2,-1,-1,2025-02-24 12:17:44.823
0,0,7,3,0,1,-2,-2,2025-02-24 12:17:44.834
0,-3,3,-6,-3,0,-2,-1,2025-02-24 12:17:44.845
-1,-8,-20,-4,-5,-2,-1,-2,2025-02-24 12:17:44.856
1,-1,-2,1,-1,1,-2,2,2025-02-24 12:17:44.867
-3,-4,-30,-4,-5,-1,0,-1,2025-02-24 12:17:44.878
-1,-2,-2,0,-1,0,-1,-1,2025-02-24 12:17:44.890
-1,-2,-2,0,-1,0,-1,-1,2025-02-24 12:17:44.901
-3,-7,11,-1,-4,-2,-1,-1,2025-02-24 12:17:44.912
1,-1,3,0,0,1,0,-1,2025-02-24 12:17:44.924
1,4,-3,3,-4,-1,0,0,2025-02-24 12:17:44.935
-1,4,29,-4,-11,-3,-4,0,2025-02-24 12:17:44.946
0,0,-1,2,3,1,1,-1,2025-02-24 12:17:44.957
0,3,7,-2,-4,-2,-1,-3,2025-02-24 12:17:44.969
0,3,7,-2,-4,-2,-1,-3,2025-02-24 12:17:44.979
-1,-8,-21,-1,-5,0,-1,-1,2025-02-24 12:17:44.991
-1,-8,-21,-1,-5,0,-1,-1,2025-02-24 12:17:45.002
1,-1,-4,0,-1,-1,-1,1,2025-02-24 12:17:45.013
-2,-1,6,-2,-4,-3,-2,-2,2025-02-24 12:17:45.024
-1,4,4,0,-4,-2,-3,0,2025-02-24 12:17:45.036
-1,1,-1,1,-1,0,-1,-1,2025-02-24 12:17:45.047
-1,1,-1,1,-1,0,-1,-1,2025-02-24 12:17:45.059
0,-1,-2,-1,-1,1,-2,-1,2025-02-24 12:17:45.069
0,-1,-2,-1,-1,1,-2,-1,2025-02-24 12:17:45.080
-1,2,-4,-2,-4,-2,-3,-1,2025-02-24 12:17:45.090
-3,1,9,-5,-8,-2,-1,-1,2025-02-24 12:17:45.102
-2,5,14,0,0,2,1,0,2025-02-24 12:17:45.113
-2,5,14,0,0,2,1,0,2025-02-24 12:17:45.124
1,-6,-5,1,-29,-4,-1,0,2025-02-24 12:17:45.135
-2,1,-2,-5,-16,-1,-2,-3,2025-02-24 12:17:45.146
-1,1,0,0,-4,-1,-2,0,2025-02-24 12:17:45.158
-1,-3,-1,-1,-16,0,-3,-2,2025-02-24 12:17:45.169
0,-5,5,-4,-6,-1,-2,-1,2025-02-24 12:17:45.180
1,1,-5,-3,-5,0,1,0,2025-02-24 12:17:45.191
1,1,-5,-3,-5,0,1,0,2025-02-24 12:17:45.202
-3,21,-6,0,-9,-1,0,0,2025-02-24 12:17:45.214
-5,-10,-4,-7,-9,-2,-4,-2,2025-02-24 12:17:45.225
0,6,22,4,-12,3,2,-2,2025-02-24 12:17:45.236
-3,-9,10,-4,-20,-3,-3,-3,2025-02-24 12:17:45.247
-1,-1,-11,-2,-5,-1,-1,-2,2025-02-24 12:17:45.259
-4,4,-9,-3,-5,-2,-1,1,2025-02-24 12:17:45.270
-1,0,-2,-2,-6,0,0,-2,2025-02-24 12:17:45.281
-1,0,-2,-2,-6,0,0,-2,2025-02-24 12:17:45.292
-4,-12,-31,0,-5,-2,1,0,2025-02-24 12:17:45.303
1,4,0,5,-4,-1,-1,-2,2025-02-24 12:17:45.315
-2,-3,-2,-3,-3,-2,-1,-1,2025-02-24 12:17:45.326
-2,-3,-2,-3,-3,-2,-1,-1,2025-02-24 12:17:45.337
-3,-7,13,-5,-7,-2,-4,-2,2025-02-24 12:17:45.348
-3,-7,13,-5,-7,-2,-4,-2,2025-02-24 12:17:45.359
-3,-7,13,-5,-7,-2,-4,-2,2025-02-24 12:17:45.371
1,4,12,-2,-3,0,0,0,2025-02-24 12:17:45.382
0,1,0,0,1,0,1,0,2025-02-24 12:17:45.393
0,1,0,0,1,0,1,0,2025-02-24 12:17:45.405
-1,1,-1,-2,-3,0,-1,0,2025-02-24 12:17:45.416
1,2,-11,-1,2,2,1,0,2025-02-24 12:17:45.427
-2,5,-11,-4,-6,-2,-1,0,2025-02-24 12:17:45.439
1,-14,-1,-4,-6,-4,-1,-1,2025-02-24 12:17:45.449
-3,-5,-1,3,1,1,-2,0,2025-02-24 12:17:45.459
0,2,7,-4,-3,-2,0,0,2025-02-24 12:17:45.471
-4,-16,-2,6,1,1,2,-2,2025-02-24 12:17:45.482
-1,0,8,-4,-1,-1,-1,-2,2025-02-24 12:17:45.493
-1,0,8,-4,-1,-1,-1,-2,2025-02-24 12:17:45.505
0,12,1,-5,-3,0,-3,0,2025-02-24 12:17:45.516
-3,4,-9,-9,-5,-1,-2,-3,2025-02-24 12:17:45.527
1,-1,6,7,0,1,-1,-1,2025-02-24 12:17:45.539
-2,-4,-2,-2,-3,-2,0,-2,2025-02-24 12:17:45.549
-2,-4,-2,-2,-3,-2,0,-2,2025-02-24 12:17:45.561
2,7,-5,1,-6,-2,-1,0,2025-02-24 12:17:45.573
2,7,-5,1,-6,-2,-1,0,2025-02-24 12:17:45.583
-2,-17,-5,-1,0,3,0,-2,2025-02-24 12:17:45.594
-2,-17,-5,-1,0,3,0,-2,2025-02-24 12:17:45.605
-3,2,2,-6,-9,-2,-1,-1,2025-02-24 12:17:45.616
-3,2,2,-6,-9,-2,-1,-1,2025-02-24 12:17:45.627
-1,14,7,-6,-5,-2,-2,-2,2025-02-24 12:17:45.639
1,-4,5,2,-5,1,-2,-1,2025-02-24 12:17:45.650
0,-8,-4,2,-2,-2,-1,-1,2025-02-24 12:17:45.673
-2,-1,-3,2,-3,-1,-1,-1,2025-02-24 12:17:45.677
-2,-1,-3,2,-3,-1,-1,-1,2025-02-24 12:17:45.682
-2,-1,-3,2,-3,-1,-1,-1,2025-02-24 12:17:45.690
2,6,-2,-1,-3,-3,0,0,2025-02-24 12:17:45.702
-1,17,-1,-3,-4,-1,-2,0,2025-02-24 12:17:45.713
-1,17,-1,-3,-4,-1,-2,0,2025-02-24 12:17:45.724
0,6,2,2,2,-1,-1,-1,2025-02-24 12:17:45.735
0,6,2,2,2,-1,-1,-1,2025-02-24 12:17:45.747
0,-8,-5,1,-4,1,0,-1,2025-02-24 12:17:45.758
-1,-7,3,-1,-2,0,-1,-1,2025-02-24 12:17:45.769
-3,-18,-4,-4,-4,-2,-1,-2,2025-02-24 12:17:45.780
-1,-5,-9,0,-5,-2,-3,-2,2025-02-24 12:17:45.791
-1,-5,-9,0,-5,-2,-3,-2,2025-02-24 12:17:45.803
0,3,2,-1,-5,1,-2,-1,2025-02-24 12:17:45.814
-1,8,3,-1,-1,-2,-2,-2,2025-02-24 12:17:45.825
-1,8,3,-1,-1,-2,-2,-2,2025-02-24 12:17:45.836
-3,-4,-11,-1,-4,-1,-1,-2,2025-02-24 12:17:45.847
-2,3,4,-1,-3,-3,-1,-1,2025-02-24 12:17:45.858
-3,-12,4,-4,-3,-2,0,-2,2025-02-24 12:17:45.869
-3,-12,4,-4,-3,-2,0,-2,2025-02-24 12:17:45.880
3,11,3,0,-4,0,0,0,2025-02-24 12:17:45.891
3,11,3,0,-4,0,0,0,2025-02-24 12:17:45.902
-1,1,2,-1,-3,-1,-2,1,2025-02-24 12:17:45.914
-2,0,8,-1,-5,0,-2,-1,2025-02-24 12:17:45.925
0,5,-1,-1,-2,-1,1,0,2025-02-24 12:17:45.936
-3,-7,-8,-3,-6,-2,-2,-3,2025-02-24 12:17:45.947
2,7,1,1,-2,-2,0,-1,2025-02-24 12:17:45.958
-1,-4,-4,-1,-4,0,-1,-1,2025-02-24 12:17:45.970
-1,-4,-4,-1,-4,0,-1,-1,2025-02-24 12:17:45.981
0,-3,-2,-4,-4,-2,-1,0,2025-02-24 12:17:45.992
0,-3,-2,-4,-4,-2,-1,0,2025-02-24 12:17:46.003
-1,5,1,-3,-3,1,0,-2,2025-02-24 12:17:46.014
-1,5,1,-3,-3,1,0,-2,2025-02-24 12:17:46.026
-3,-14,-11,-3,-4,0,0,0,2025-02-24 12:17:46.037
-3,-14,-11,-3,-4,0,0,0,2025-02-24 12:17:46.048
-3,-1,4,-1,-4,-1,0,0,2025-02-24 12:17:46.060
-3,-1,4,-1,-4,-1,0,0,2025-02-24 12:17:46.071
0,-2,2,1,-1,-1,1,-1,2025-02-24 12:17:46.083
-2,1,0,-2,-2,-1,-1,0,2025-02-24 12:17:46.094
-2,-9,4,0,-3,-2,-1,-2,2025-02-24 12:17:46.105
0,-10,1,-1,-2,-2,-2,-2,2025-02-24 12:17:46.117
-3,-3,-6,-2,-3,0,-2,-1,2025-02-24 12:17:46.128
0,4,18,-1,-4,0,-1,-2,2025-02-24 12:17:46.140
-2,-5,-7,-3,-5,-1,0,-1,2025-02-24 12:17:46.151
-2,-5,-7,-3,-5,-1,0,-1,2025-02-24 12:17:46.162
1,-4,11,2,-1,-2,-1,-2,2025-02-24 12:17:46.174
1,5,1,0,-1,0,1,0,2025-02-24 12:17:46.185
1,5,1,0,-1,0,1,0,2025-02-24 12:17:46.197
0,8,3,3,0,0,-1,-1,2025-02-24 12:17:46.208
-4,5,-3,1,-2,-3,0,0,2025-02-24 12:17:46.219
-1,-5,-10,-2,-5,-1,-1,0,2025-02-24 12:17:46.230
-1,1,3,0,-1,-3,-2,-2,2025-02-24 12:17:46.241
-2,-6,0,2,-3,-2,0,-3,2025-02-24 12:17:46.252
-3,-3,5,-3,-4,-2,-2,-4,2025-02-24 12:17:46.264
-1,-9,-10,-3,-2,-1,-2,-2,2025-02-24 12:17:46.275
-1,-9,-10,-3,-2,-1,-2,-2,2025-02-24 12:17:46.286
-3,-1,9,-2,-4,-2,-2,-1,2025-02-24 12:17:46.297
-1,-5,-5,1,-1,0,-1,-2,2025-02-24 12:17:46.308
-2,-2,1,-2,-5,-1,-2,0,2025-02-24 12:17:46.320
-3,0,-1,-1,-3,-1,0,-3,2025-02-24 12:17:46.331
2,7,-1,0,-5,-2,-2,-1,2025-02-24 12:17:46.342
1,-2,-2,-3,-5,-1,-1,-2,2025-02-24 12:17:46.353
-1,-1,-5,1,-1,0,1,0,2025-02-24 12:17:46.364
0,-6,-11,-4,-1,1,-2,-1,2025-02-24 12:17:46.376
0,-6,-11,-4,-1,1,-2,-1,2025-02-24 12:17:46.387
0,5,3,3,-3,0,0,0,2025-02-24 12:17:46.398
0,5,3,3,-3,0,0,0,2025-02-24 12:17:46.409
-2,-5,-5,-5,-8,-1,-3,-2,2025-02-24 12:17:46.427
0,-2,-2,2,-1,0,0,1,2025-02-24 12:17:46.432
0,2,6,1,-2,0,0,-1,2025-02-24 12:17:46.443
-1,3,0,2,-4,-3,-2,-2,2025-02-24 12:17:46.454
-1,3,0,2,-4,-3,-2,-2,2025-02-24 12:17:46.468
-2,-9,2,-2,-4,0,-2,-1,2025-02-24 12:17:46.476
-2,-9,2,-2,-4,0,-2,-1,2025-02-24 12:17:46.487
2,0,-1,-1,-3,-1,-1,0,2025-02-24 12:17:46.498
-1,3,-2,-1,-5,0,0,-2,2025-02-24 12:17:46.509
-1,3,-2,-1,-5,0,0,-2,2025-02-24 12:17:46.524
-2,0,-2,-2,-2,-1,0,0,2025-02-24 12:17:46.532
-2,0,-2,-2,-2,-1,0,0,2025-02-24 12:17:46.546
-1,2,1,0,-2,-1,0,-1,2025-02-24 12:17:46.555
-1,2,1,0,-2,-1,0,-1,2025-02-24 12:17:46.565
0,4,3,4,-5,-2,-1,0,2025-02-24 12:17:46.576
0,4,3,4,-5,-2,-1,0,2025-02-24 12:17:46.588
-1,-7,-10,-3,-6,-2,-2,-1,2025-02-24 12:17:46.599
-1,-7,-10,-3,-6,-2,-2,-1,2025-02-24 12:17:46.610
0,-2,-2,2,1,-1,-2,-2,2025-02-24 12:17:46.625
-2,-1,1,-1,-2,1,-1,-2,2025-02-24 12:17:46.632
-2,-1,1,-1,-2,1,-1,-2,2025-02-24 12:17:46.644
-1,5,1,-3,-4,0,-1,0,2025-02-24 12:17:46.655
-1,5,1,-3,-4,0,-1,0,2025-02-24 12:17:46.666
-2,-3,-1,-2,-3,-2,-2,0,2025-02-24 12:17:46.677
-2,-1,-5,0,-5,-1,-1,0,2025-02-24 12:17:46.688
-2,-1,-5,0,-5,-1,-1,0,2025-02-24 12:17:46.701
-1,2,8,-3,-3,1,-2,0,2025-02-24 12:17:46.710
-1,-2,-12,-3,-2,-1,-2,0,2025-02-24 12:17:46.722
0,1,9,-3,-5,-2,1,-1,2025-02-24 12:17:46.735
-3,-1,-1,-4,-5,0,-1,0,2025-02-24 12:17:46.745
0,1,-3,1,-2,0,2,-1,2025-02-24 12:17:46.755
0,1,-3,1,-2,0,2,-1,2025-02-24 12:17:46.766
-3,-11,-3,-3,-6,-2,-3,-1,2025-02-24 12:17:46.778
-3,-11,-3,-3,-6,-2,-3,-1,2025-02-24 12:17:46.790
2,5,-3,6,1,1,1,0,2025-02-24 12:17:46.800
-4,1,4,1,0,-1,-2,-2,2025-02-24 12:17:46.812
-1,3,0,-2,-3,-2,0,-3,2025-02-24 12:17:46.823
-1,-4,-1,0,-4,0,0,0,2025-02-24 12:17:46.834
-1,-4,-1,0,-4,0,0,0,2025-02-24 12:17:46.848
-1,-12,0,-2,-1,1,-1,0,2025-02-24 12:17:46.858
-4,-19,-3,-1,-2,-1,-1,-1,2025-02-24 12:17:46.866
-2,4,-11,-4,-9,-5,-1,-2,2025-02-24 12:17:46.878
-1,-7,-1,0,-1,1,0,-2,2025-02-24 12:17:46.890
-1,-7,-9,-1,-2,-1,-1,0,2025-02-24 12:17:46.901
-1,-5,0,0,-6,-1,0,-1,2025-02-24 12:17:46.912
-3,4,3,1,-3,-2,-2,-2,2025-02-24 12:17:46.923
-1,8,5,0,-4,0,-1,-2,2025-02-24 12:17:46.935
-1,8,5,0,-4,0,-1,-2,2025-02-24 12:17:46.949
0,7,-2,-1,4,2,0,0,2025-02-24 12:17:46.957
-1,-4,-1,-3,-8,-4,-2,0,2025-02-24 12:17:46.968
1,-1,-3,2,1,1,-1,0,2025-02-24 12:17:46.979
-3,3,-1,0,-3,-1,-1,-1,2025-02-24 12:17:46.990
-2,0,4,-3,-4,-3,-1,-1,2025-02-24 12:17:47.001
-4,-1,3,-2,-6,-3,0,-3,2025-02-24 12:17:47.014
-4,-1,3,-2,-6,-3,0,-3,2025-02-24 12:17:47.023
0,-3,-4,0,-1,0,-1,1,2025-02-24 12:17:47.035
0,-3,-4,0,-1,0,-1,1,2025-02-24 12:17:47.049
-2,1,-2,-2,-6,-2,-2,-1,2025-02-24 12:17:47.057
-2,1,-2,-2,-6,-2,-2,-1,2025-02-24 12:17:47.068
0,0,3,4,1,-1,-2,-2,2025-02-24 12:17:47.079
0,0,3,4,1,-1,-2,-2,2025-02-24 12:17:47.090
0,-3,-2,-1,-6,0,-1,-1,2025-02-24 12:17:47.101
-5,-4,-2,-4,-6,0,-2,0,2025-02-24 12:17:47.112
-2,2,1,-1,-5,0,-2,-3,2025-02-24 12:17:47.124
1,1,-2,-2,-3,0,-2,1,2025-02-24 12:17:47.135
-1,1,4,-2,-6,-2,-2,-3,2025-02-24 12:17:47.146
-1,1,4,-2,-6,-2,-2,-3,2025-02-24 12:17:47.160
0,-2,-2,-1,-6,-2,0,1,2025-02-24 12:17:47.171
0,-1,-5,-1,-4,0,0,-2,2025-02-24 12:17:47.180
-3,-3,4,-4,-4,-2,-2,-1,2025-02-24 12:17:47.191
-3,-3,4,-4,-4,-2,-2,-1,2025-02-24 12:17:47.203
-2,-2,2,-2,-4,-1,-1,-2,2025-02-24 12:17:47.214
-2,-2,2,-2,-4,-1,-1,-2,2025-02-24 12:17:47.225
-1,-1,-3,-2,-5,0,0,0,2025-02-24 12:17:47.236
-1,-1,-3,-2,-5,0,0,0,2025-02-24 12:17:47.247
0,-3,-3,2,-2,0,1,-1,2025-02-24 12:17:47.260
0,-1,-3,-2,-3,-3,-1,-1,2025-02-24 12:17:47.269
-2,2,0,-3,-5,-1,1,-2,2025-02-24 12:17:47.280
-2,2,0,-3,-5,-1,1,-2,2025-02-24 12:17:47.291
1,-1,0,-3,-3,-3,-1,-1,2025-02-24 12:17:47.303
0,0,-2,0,-4,1,-3,-2,2025-02-24 12:17:47.314
0,0,-2,0,-4,1,-3,-2,2025-02-24 12:17:47.327
0,0,-2,0,-4,1,-3,-2,2025-02-24 12:17:47.336
0,0,-4,-4,-4,-2,0,-1,2025-02-24 12:17:47.348
-1,1,0,1,-4,-2,0,-3,2025-02-24 12:17:47.359
0,-2,-2,1,-1,0,-2,-1,2025-02-24 12:17:47.372
0,0,-1,-1,-4,0,-2,-1,2025-02-24 12:17:47.381
0,0,-2,-2,-4,-1,0,-2,2025-02-24 12:17:47.392
0,-1,0,-2,-4,-1,-1,-1,2025-02-24 12:17:47.404
0,-1,0,-2,-4,-1,-1,-1,2025-02-24 12:17:47.415
1,-1,1,1,1,1,0,0,2025-02-24 12:17:47.427
-1,0,-1,-3,-6,-2,-1,0,2025-02-24 12:17:47.438
-1,0,-1,-3,-6,-2,-1,0,2025-02-24 12:17:47.448
1,-2,-2,-4,-4,0,0,-2,2025-02-24 12:17:47.459
-1,-2,-2,0,-3,-3,-1,-2,2025-02-24 12:17:47.473
-1,-4,-11,-3,-5,-2,0,0,2025-02-24 12:17:47.483
-2,-5,-3,-1,-5,-2,-2,-3,2025-02-24 12:17:47.492
-2,-5,-3,-1,-5,-2,-2,-3,2025-02-24 12:17:47.503
0,0,3,-3,-3,1,0,-1,2025-02-24 12:17:47.515
0,0,3,-3,-3,1,0,-1,2025-02-24 12:17:47.526
1,3,1,-1,-2,0,-2,0,2025-02-24 12:17:47.537
1,3,1,-1,-2,0,-2,0,2025-02-24 12:17:47.548
-1,-2,3,-2,-5,-1,-3,0,2025-02-24 12:17:47.559
-1,-2,3,-2,-5,-1,-3,0,2025-02-24 12:17:47.571
-2,-2,-1,-2,-1,-3,-1,-1,2025-02-24 12:17:47.584
0,0,-2,-1,-1,-1,-1,-1,2025-02-24 12:17:47.593
-2,0,-4,0,-3,-2,0,-1,2025-02-24 12:17:47.604
-2,0,-1,-1,-2,-1,0,-3,2025-02-24 12:17:47.616
-2,0,-1,-1,-2,-1,0,-3,2025-02-24 12:17:47.627
0,1,-3,-3,-3,-2,-2,-1,2025-02-24 12:17:47.640
0,1,-3,-3,-3,-2,-2,-1,2025-02-24 12:17:47.649
-2,-3,0,-2,-3,-2,-2,-1,2025-02-24 12:17:47.660
0,-1,-2,1,-3,-1,-2,-1,2025-02-24 12:17:47.672
0,-1,-2,1,-3,-1,-2,-1,2025-02-24 12:17:47.685
-4,-3,-2,-3,-3,-2,-2,-1,2025-02-24 12:17:47.694
-4,-3,-2,-3,-3,-2,-2,-1,2025-02-24 12:17:47.705
1,-1,-1,-2,-3,-1,-2,0,2025-02-24 12:17:47.716
1,3,1,5,0,0,-2,-2,2025-02-24 12:17:47.727
1,-3,-1,-7,-1,2,0,-1,2025-02-24 12:17:47.739
1,-3,-1,-7,-1,2,0,-1,2025-02-24 12:17:47.750
1,1,-1,2,-4,0,0,-1,2025-02-24 12:17:47.761
1,1,-1,2,-4,0,0,-1,2025-02-24 12:17:47.773
-1,0,-2,1,-1,-3,0,0,2025-02-24 12:17:47.784
0,-2,0,-2,-2,-3,0,-2,2025-02-24 12:17:47.797
0,1,-1,1,-2,0,-1,0,2025-02-24 12:17:47.806
0,1,-1,1,-2,0,-1,0,2025-02-24 12:17:47.817
-4,-4,-4,-1,-4,-2,-1,-3,2025-02-24 12:17:47.827
0,0,0,-2,-3,0,-1,-1,2025-02-24 12:17:47.839
1,-1,-3,-2,-5,-2,-1,0,2025-02-24 12:17:47.850
-1,-1,4,-1,-1,1,1,-2,2025-02-24 12:17:47.861
-2,0,-2,-2,-5,-2,-1,-1,2025-02-24 12:17:47.872
0,0,-1,0,-4,-2,-3,0,2025-02-24 12:17:47.883
-4,-2,0,-1,-4,-1,0,-3,2025-02-24 12:17:47.895
-1,0,-2,1,-6,-1,-1,-2,2025-02-24 12:17:47.909
0,-1,-2,1,-3,0,0,0,2025-02-24 12:17:47.917
0,-1,-2,1,-3,0,0,0,2025-02-24 12:17:47.928
-1,-1,1,-2,-5,0,-1,1,2025-02-24 12:17:47.940
-1,0,-1,1,-2,-1,0,-1,2025-02-24 12:17:47.953
-4,-4,-3,-3,-2,0,-2,-2,2025-02-24 12:17:47.962
-1,0,-2,-1,-4,0,-2,-1,2025-02-24 12:17:47.973
-1,0,-2,-1,-4,0,-2,-1,2025-02-24 12:17:47.984
-1,-2,-2,-2,-3,-1,-2,-1,2025-02-24 12:17:47.995
-2,-1,0,-2,-3,-2,-1,0,2025-02-24 12:17:48.007
0,-2,-2,-2,-4,-1,-2,0,2025-02-24 12:17:48.020
1,3,2,2,-5,0,0,-1,2025-02-24 12:17:48.029
1,5,-2,0,-2,0,-1,0,2025-02-24 12:17:48.040
1,5,-2,0,-2,0,-1,0,2025-02-24 12:17:48.051
1,2,0,2,-1,-1,-1,-1,2025-02-24 12:17:48.063
1,2,0,2,-1,-1,-1,-1,2025-02-24 12:17:48.074
-3,-3,-3,0,-3,0,-2,-1,2025-02-24 12:17:48.085
-1,-3,0,-3,-2,0,-1,0,2025-02-24 12:17:48.096
-1,-2,-3,-1,-4,0,0,-2,2025-02-24 12:17:48.109
-3,-2,-1,-2,-5,-3,-2,-3,2025-02-24 12:17:48.121
-3,-2,-1,-2,-5,-3,-2,-3,2025-02-24 12:17:48.129
0,-2,-2,2,-4,0,0,1,2025-02-24 12:17:48.141
-1,-1,2,-3,-2,-1,-1,-2,2025-02-24 12:17:48.152
0,2,0,3,-5,-2,0,-2,2025-02-24 12:17:48.163
0,-2,-1,-4,-5,-1,1,1,2025-02-24 12:17:48.174
-2,-3,0,-4,-4,-1,-2,-2,2025-02-24 12:17:48.186
-6,-4,-5,-3,-7,0,-2,-1,2025-02-24 12:17:48.196
-6,-4,-5,-3,-7,0,-2,-1,2025-02-24 12:17:48.207
0,-2,1,0,-3,-3,-1,0,2025-02-24 12:17:48.219
-1,1,2,-2,-4,-1,-1,0,2025-02-24 12:17:48.232
1,0,-2,0,-2,-1,-1,-1,2025-02-24 12:17:48.241
1,0,-2,0,-2,-1,-1,-1,2025-02-24 12:17:48.252
-1,-3,-1,-3,-4,0,-1,0,2025-02-24 12:17:48.266
0,-1,-2,-1,-5,-2,-1,-1,2025-02-24 12:17:48.275
0,-1,-2,-1,-5,-2,-1,-1,2025-02-24 12:17:48.286
1,-2,-1,-1,-2,0,-1,0,2025-02-24 12:17:48.297
1,-2,-1,-1,-2,0,-1,0,2025-02-24 12:17:48.308
-1,0,-2,1,-5,-1,0,-1,2025-02-24 12:17:48.319
-1,0,-2,1,-5,-1,0,-1,2025-02-24 12:17:48.335
-2,-2,-3,0,-4,-1,-2,-2,2025-02-24 12:17:48.341
-1,0,-1,-3,-4,-2,0,0,2025-02-24 12:17:48.352
-1,0,-1,-3,-4,-2,0,0,2025-02-24 12:17:48.364
-2,-2,-2,-1,-4,-1,-2,-3,2025-02-24 12:17:48.375
-2,2,-1,0,-4,0,-2,-1,2025-02-24 12:17:48.386
-2,2,-1,0,-4,0,-2,-1,2025-02-24 12:17:48.398
1,1,3,1,-5,-1,-1,-1,2025-02-24 12:17:48.410
0,-2,-2,2,-6,0,-1,0,2025-02-24 12:17:48.423
0,-2,-2,2,-6,0,-1,0,2025-02-24 12:17:48.433
-3,0,-2,-1,-4,-2,-1,-2,2025-02-24 12:17:48.442
-3,0,-2,-1,-4,-2,-1,-2,2025-02-24 12:17:48.453
-1,-2,-2,0,-2,0,-1,-1,2025-02-24 12:17:48.464
2,2,-1,2,-3,-2,-1,-2,2025-02-24 12:17:48.475
2,2,-1,2,-3,-2,-1,-2,2025-02-24 12:17:48.487
-1,-2,-2,-1,-3,-2,-2,-1,2025-02-24 12:17:48.498
-1,-2,-2,-1,-3,-2,-2,-1,2025-02-24 12:17:48.509
0,-2,-7,-2,-2,-1,-2,0,2025-02-24 12:17:48.520
1,0,3,-1,-2,0,-2,-2,2025-02-24 12:17:48.531
-2,-3,-8,-4,-2,-2,-1,-1,2025-02-24 12:17:48.545
-3,-3,-1,-1,-3,-1,-2,-1,2025-02-24 12:17:48.554
-3,-3,-1,-1,-3,-1,-2,-1,2025-02-24 12:17:48.565
-3,-3,-1,-1,-3,-1,-2,-1,2025-02-24 12:17:48.578
-1,2,0,1,-2,-1,-1,-1,2025-02-24 12:17:48.587
0,1,-2,-3,-4,0,-1,-2,2025-02-24 12:17:48.598
0,1,-2,-3,-4,0,-1,-2,2025-02-24 12:17:48.610
-2,-2,-2,0,-3,0,-2,0,2025-02-24 12:17:48.621
-2,-2,-2,0,-3,0,-2,0,2025-02-24 12:17:48.632
-1,-3,-3,-1,-2,0,0,-1,2025-02-24 12:17:48.646
-1,-1,-4,-1,-2,0,-1,-1,2025-02-24 12:17:48.654
-1,-1,-4,-1,-2,0,-1,-1,2025-02-24 12:17:48.666
-1,-1,0,-3,-3,-3,-1,-1,2025-02-24 12:17:48.677
-1,-1,0,-3,-3,-3,-1,-1,2025-02-24 12:17:48.688
0,0,-4,-3,-3,0,-2,0,2025-02-24 12:17:48.699
0,0,-4,-3,-3,0,-2,0,2025-02-24 12:17:48.710
-1,-1,-2,0,-3,-2,-1,-2,2025-02-24 12:17:48.722
-1,-1,-2,0,-3,-2,-1,-2,2025-02-24 12:17:48.735
0,1,2,1,-3,-1,-1,0,2025-02-24 12:17:48.746
0,1,2,1,-3,-1,-1,0,2025-02-24 12:17:48.756
0,0,-2,0,-2,2,-2,1,2025-02-24 12:17:48.766
-1,0,6,-4,-1,0,-2,-3,2025-02-24 12:17:48.778
-1,0,6,-4,-1,0,-2,-3,2025-02-24 12:17:48.789
-2,-2,-3,1,-4,-2,-1,-1,2025-02-24 12:17:48.800
-2,-2,-3,1,-4,-2,-1,-1,2025-02-24 12:17:48.810
0,-1,0,0,-3,0,-1,-1,2025-02-24 12:17:48.822
0,0,-5,-1,-2,-1,0,0,2025-02-24 12:17:48.833
-1,-2,-4,0,-3,-2,0,0,2025-02-24 12:17:48.844
0,-3,1,-3,-2,-2,-2,-3,2025-02-24 12:17:48.858
0,0,-1,-1,-2,-1,0,0,2025-02-24 12:17:48.866
-3,-2,-4,-3,-5,-1,-2,-2,2025-02-24 12:17:48.878
-3,-2,-4,-3,-5,-1,-2,-2,2025-02-24 12:17:48.891
-2,-1,1,-1,-2,0,0,0,2025-02-24 12:17:48.900
-2,-1,1,-1,-2,0,0,0,2025-02-24 12:17:48.911
0,-3,-1,-1,-3,-1,-2,1,2025-02-24 12:17:48.922
-2,-1,-2,-3,-2,-1,-2,-2,2025-02-24 12:17:48.933
-2,-3,-1,0,-3,1,0,-1,2025-02-24 12:17:48.945
1,0,-1,0,-2,-1,-1,-1,2025-02-24 12:17:48.959
1,0,-2,-2,-4,-1,-2,1,2025-02-24 12:17:48.967
1,0,-2,-2,-4,-1,-2,1,2025-02-24 12:17:48.978
1,1,2,2,0,0,0,-2,2025-02-24 12:17:48.989
-3,-8,-3,-2,-4,-3,-1,-1,2025-02-24 12:17:49.001
1,0,1,-1,-5,-2,-1,-2,2025-02-24 12:17:49.012
1,0,1,-1,-5,-2,-1,-2,2025-02-24 12:17:49.023
-2,0,-2,-2,-6,-3,-1,-1,2025-02-24 12:17:49.034
0,1,0,0,-4,-1,-1,-1,2025-02-24 12:17:49.048
0,1,0,0,-4,-1,-1,-1,2025-02-24 12:17:49.059
-1,-3,0,0,-5,-2,-1,0,2025-02-24 12:17:49.068
0,4,0,1,-2,0,1,1,2025-02-24 12:17:49.079
0,4,0,1,-2,0,1,1,2025-02-24 12:17:49.090
-2,0,1,-1,-3,0,-1,-2,2025-02-24 12:17:49.101
0,0,4,-3,-2,0,0,0,2025-02-24 12:17:49.113
0,2,-3,-3,-3,0,-1,0,2025-02-24 12:17:49.124
5,3,0,2,-5,-2,-1,0,2025-02-24 12:17:49.135
5,3,0,2,-5,-2,-1,0,2025-02-24 12:17:49.146
-2,-4,-2,-4,-4,-2,-1,-2,2025-02-24 12:17:49.158
0,1,2,-2,-3,-2,-2,-2,2025-02-24 12:17:49.172
-3,-1,2,-2,-1,0,-1,-1,2025-02-24 12:17:49.179
-3,-1,2,-2,-1,0,-1,-1,2025-02-24 12:17:49.190
2,-4,0,-1,-1,-1,-2,0,2025-02-24 12:17:49.204
2,2,0,-1,0,-1,0,1,2025-02-24 12:17:49.213
-14,-5,-4,-3,-3,-3,-2,-2,2025-02-24 12:17:49.225
-1,3,1,-1,-4,-2,-1,0,2025-02-24 12:17:49.235
-3,-2,0,0,-1,-1,-1,-1,2025-02-24 12:17:49.247
-3,-2,0,0,-1,-1,-1,-1,2025-02-24 12:17:49.258
2,2,4,0,-2,-1,-2,-1,2025-02-24 12:17:49.269
1,-2,2,-1,-1,-1,-3,1,2025-02-24 12:17:49.283
0,3,2,-1,-5,0,-1,0,2025-02-24 12:17:49.291
0,1,-1,-1,-3,-2,-2,-1,2025-02-24 12:17:49.302
0,1,-1,-1,-3,-2,-2,-1,2025-02-24 12:17:49.314
3,5,0,1,-3,0,1,-1,2025-02-24 12:17:49.325
-2,-2,-1,-2,-3,-1,-1,-1,2025-02-24 12:17:49.336
-2,-7,-1,2,-3,0,-2,0,2025-02-24 12:17:49.347
1,0,-4,-2,-1,-1,0,0,2025-02-24 12:17:49.361
1,0,-4,-2,-1,-1,0,0,2025-02-24 12:17:49.370
-2,-3,-1,0,-3,-1,-2,-2,2025-02-24 12:17:49.381
-3,-4,-3,-1,-4,-1,0,-3,2025-02-24 12:17:49.395
-3,-5,-2,-5,-4,-2,-3,-3,2025-02-24 12:17:49.403
-3,-5,-2,-5,-4,-2,-3,-3,2025-02-24 12:17:49.414
-3,1,-3,0,-3,-3,-1,-1,2025-02-24 12:17:49.425
-3,1,-3,0,-3,-3,-1,-1,2025-02-24 12:17:49.437
2,3,-3,-1,-1,-1,0,0,2025-02-24 12:17:49.447
7,12,4,6,-3,-1,0,1,2025-02-24 12:17:49.459
-3,2,-2,-2,-4,-2,-2,0,2025-02-24 12:17:49.470
-1,-2,1,5,0,-2,0,-2,2025-02-24 12:17:49.481
-1,-2,1,5,0,-2,0,-2,2025-02-24 12:17:49.508
-3,-4,1,-1,-3,-1,-2,-2,2025-02-24 12:17:49.515
-7,-3,3,-1,-5,-1,-3,-2,2025-02-24 12:17:49.519
-7,-3,3,-1,-5,-1,-3,-2,2025-02-24 12:17:49.523
-7,-3,3,-1,-5,-1,-3,-2,2025-02-24 12:17:49.532
0,-6,-1,-4,-1,0,-1,0,2025-02-24 12:17:49.543
0,-6,-1,-4,-1,0,-1,0,2025-02-24 12:17:49.555
0,-3,-8,-6,-2,0,2,0,2025-02-24 12:17:49.566
-1,-4,-1,-1,-2,-1,0,1,2025-02-24 12:17:49.577
1,-2,-2,0,-2,-1,0,-1,2025-02-24 12:17:49.589
-2,-1,4,-1,-2,0,-1,-2,2025-02-24 12:17:49.601
-2,-1,4,-1,-2,0,-1,-2,2025-02-24 12:17:49.610
1,1,1,2,-2,0,-1,-2,2025-02-24 12:17:49.622
3,5,3,-1,-2,-2,0,1,2025-02-24 12:17:49.633
-1,-1,2,-2,-3,-1,-2,-1,2025-02-24 12:17:49.644
-1,-1,2,-2,-3,-1,-2,-1,2025-02-24 12:17:49.655
-3,-4,-2,-1,-4,-1,-2,-1,2025-02-24 12:17:49.666
-3,-4,-2,-1,-4,-1,-2,-1,2025-02-24 12:17:49.679
6,4,4,0,-17,1,-1,-1,2025-02-24 12:17:49.689
2,1,-2,1,-9,1,-1,0,2025-02-24 12:17:49.700
3,3,4,2,-2,0,-2,0,2025-02-24 12:17:49.713
-3,-4,-2,-4,-4,-2,0,-2,2025-02-24 12:17:49.722
-3,-4,-2,-4,-4,-2,0,-2,2025-02-24 12:17:49.733
1,0,0,-1,-5,-3,-1,0,2025-02-24 12:17:49.744
1,0,0,-1,-5,-3,-1,0,2025-02-24 12:17:49.756
-4,-2,-2,-1,-6,-2,-1,1,2025-02-24 12:17:49.767
-2,5,-1,2,-3,0,-1,-3,2025-02-24 12:17:49.778
0,-5,-1,-3,-5,-1,0,0,2025-02-24 12:17:49.788
3,-2,-7,-3,-4,1,-1,4,2025-02-24 12:17:49.800
1,1,1,1,-3,-1,0,0,2025-02-24 12:17:49.813
2,5,-2,-2,-4,-2,-2,0,2025-02-24 12:17:49.822
-1,3,-2,-1,-4,-2,-4,-2,2025-02-24 12:17:49.835
-2,-1,-3,-6,-3,-3,0,1,2025-02-24 12:17:49.845
-2,-1,-3,-6,-3,-3,0,1,2025-02-24 12:17:49.856
2,0,1,2,-7,-3,-1,-2,2025-02-24 12:17:49.867
-12,-9,-8,-5,-6,-2,-3,-7,2025-02-24 12:17:49.878
-25,-4,1,1,-5,-1,0,0,2025-02-24 12:17:49.889
3,-5,-1,-2,-3,-1,-2,-2,2025-02-24 12:17:49.900
3,-5,-1,-2,-3,-1,-2,-2,2025-02-24 12:17:49.912
-11,0,0,0,-4,0,1,0,2025-02-24 12:17:49.925
6,3,-1,0,-3,0,-2,0,2025-02-24 12:17:49.934
-1,-3,-3,2,-5,-1,-2,-1,2025-02-24 12:17:49.945
-1,-3,-3,2,-5,-1,-2,-1,2025-02-24 12:17:49.957
-1,-3,-3,2,-5,-1,-2,-1,2025-02-24 12:17:49.968
0,-3,2,-1,-3,-2,1,-2,2025-02-24 12:17:49.980
-4,-5,-3,-3,-7,-4,-1,-3,2025-02-24 12:17:49.994
-6,-2,-2,0,-4,0,-2,0,2025-02-24 12:17:50.003
-4,0,-1,-3,-3,0,1,3,2025-02-24 12:17:50.014
-15,-2,-1,0,-6,-3,-4,-5,2025-02-24 12:17:50.028
-1,-7,-5,-3,-4,0,0,-1,2025-02-24 12:17:50.037
1,-5,-1,-4,-4,-2,-2,0,2025-02-24 12:17:50.049
3,4,0,2,-6,0,-2,-1,2025-02-24 12:17:50.060
1,-6,-15,-5,-5,0,-2,2,2025-02-24 12:17:50.072
-5,3,0,-1,-2,0,-2,-8,2025-02-24 12:17:50.083
-5,-10,-1,-7,-6,-4,-4,-6,2025-02-24 12:17:50.095
-4,-15,-8,-3,-3,-2,-2,0,2025-02-24 12:17:50.106
10,4,7,2,-4,-1,-1,-7,2025-02-24 12:17:50.118
9,0,-5,-4,-4,-1,0,-2,2025-02-24 12:17:50.132
-6,-9,-2,-3,-7,-1,-1,1,2025-02-24 12:17:50.142
0,4,3,2,-2,0,0,0,2025-02-24 12:17:50.151
1,-2,3,0,-4,-2,-1,4,2025-02-24 12:17:50.162
-11,2,-4,-4,-4,-2,-1,-7,2025-02-24 12:17:50.174
10,6,6,1,-4,0,0,3,2025-02-24 12:17:50.185
10,6,6,1,-4,0,0,3,2025-02-24 12:17:50.196
-4,-2,4,-1,-4,-1,-2,15,2025-02-24 12:17:50.207
-4,-2,4,-1,-4,-1,-2,15,2025-02-24 12:17:50.218
15,3,3,1,-3,-1,-1,3,2025-02-24 12:17:50.232
-4,0,-5,0,-4,1,-1,-1,2025-02-24 12:17:50.240
3,5,1,0,-5,-1,1,-10,2025-02-24 12:17:50.252
3,5,1,0,-5,-1,1,-10,2025-02-24 12:17:50.263
1,4,0,1,-6,-2,-3,-7,2025-02-24 12:17:50.274
10,-1,-1,0,-4,0,1,2,2025-02-24 12:17:50.285
10,-1,-1,0,-4,0,1,2,2025-02-24 12:17:50.299
-12,-3,-2,-2,-4,-1,0,-7,2025-02-24 12:17:50.308
1,0,4,0,-3,1,-1,-19,2025-02-24 12:17:50.319
5,0,-2,-2,-5,-3,0,19,2025-02-24 12:17:50.331
-6,-2,-1,-1,-7,-1,-1,9,2025-02-24 12:17:50.344
17,1,-15,-7,-5,-1,-1,4,2025-02-24 12:17:50.353
-11,-2,3,2,-5,-1,0,-4,2025-02-24 12:17:50.364
-40,-2,5,1,-4,-1,-4,-10,2025-02-24 12:17:50.375
93,7,10,1,-4,0,4,18,2025-02-24 12:17:50.385
93,7,10,1,-4,0,4,18,2025-02-24 12:17:50.397
20,-12,-12,-6,-7,0,0,12,2025-02-24 12:17:50.409
20,-12,-12,-6,-7,0,0,12,2025-02-24 12:17:50.419
-8,5,6,2,-5,-2,-6,-22,2025-02-24 12:17:50.431
-11,-5,-5,-2,-5,0,-1,18,2025-02-24 12:17:50.442
-75,0,-3,1,-1,0,3,-24,2025-02-24 12:17:50.457
-93,-31,-2,-5,-9,-3,-4,-10,2025-02-24 12:17:50.464
-93,-31,-2,-5,-9,-3,-4,-10,2025-02-24 12:17:50.476
1,4,-4,-1,-5,-2,-3,3,2025-02-24 12:17:50.487
45,15,12,2,-3,1,4,68,2025-02-24 12:17:50.498
12,7,8,2,-4,-1,-4,-46,2025-02-24 12:17:50.509
12,7,8,2,-4,-1,-4,-46,2025-02-24 12:17:50.520
-16,-2,-2,0,-6,-1,0,1,2025-02-24 12:17:50.531
-16,-2,-2,0,-6,-1,0,1,2025-02-24 12:17:50.542
52,12,0,0,-2,-1,-3,-8,2025-02-24 12:17:50.556
-27,10,1,4,-6,0,2,17,2025-02-24 12:17:50.564
-27,10,1,4,-6,0,2,17,2025-02-24 12:17:50.576
-12,3,0,-5,-3,1,-3,15,2025-02-24 12:17:50.587
-12,3,0,-5,-3,1,-3,15,2025-02-24 12:17:50.598
8,5,-10,-4,-5,0,2,5,2025-02-24 12:17:50.611
-34,0,-2,-2,-8,-5,-2,-39,2025-02-24 12:17:50.620
-19,-10,11,1,-5,-4,0,-45,2025-02-24 12:17:50.631
17,-8,-9,-3,-5,-2,-7,-30,2025-02-24 12:17:50.642
17,-8,-9,-3,-5,-2,-7,-30,2025-02-24 12:17:50.654
0,-6,0,0,-5,0,-11,12,2025-02-24 12:17:50.667
-26,9,15,10,-10,-2,20,26,2025-02-24 12:17:50.676
18,-10,-2,-13,-2,-3,0,10,2025-02-24 12:17:50.687
18,-10,-2,-13,-2,-3,0,10,2025-02-24 12:17:50.698
11,1,2,3,-6,0,-1,8,2025-02-24 12:17:50.710
11,1,2,3,-6,0,-1,8,2025-02-24 12:17:50.722
10,-11,1,-3,-6,-3,-2,25,2025-02-24 12:17:50.732
-10,1,0,-2,-3,1,-8,0,2025-02-24 12:17:50.744
2,1,10,2,-9,-1,9,7,2025-02-24 12:17:50.755
41,3,-7,6,-3,0,6,11,2025-02-24 12:17:50.767
41,3,-7,6,-3,0,6,11,2025-02-24 12:17:50.779
-5,-9,-14,-5,-6,-2,-1,-25,2025-02-24 12:17:50.788
8,-5,-12,-6,-7,0,1,16,2025-02-24 12:17:50.799
8,-5,-12,-6,-7,0,1,16,2025-02-24 12:17:50.810
19,0,11,-2,-4,0,-4,18,2025-02-24 12:17:50.822
-9,18,-9,-3,-4,0,0,9,2025-02-24 12:17:50.833
9,-11,-7,-2,-4,-1,0,0,2025-02-24 12:17:50.844
-2,0,0,6,2,1,0,8,2025-02-24 12:17:50.856
-33,-8,-26,-8,-3,2,-10,-50,2025-02-24 12:17:50.866
-1,-4,-2,-4,-8,-1,7,3,2025-02-24 12:17:50.878
-18,0,7,1,-4,0,-2,5,2025-02-24 12:17:50.891
-18,0,7,1,-4,0,-2,5,2025-02-24 12:17:50.900
-4,4,-1,-1,-2,-2,4,8,2025-02-24 12:17:50.911
21,-1,6,7,-5,-1,0,8,2025-02-24 12:17:50.925
-3,-9,-3,-4,-8,-1,0,-13,2025-02-24 12:17:50.933
4,-2,13,-3,-4,-1,-13,1,2025-02-24 12:17:50.944
4,-2,13,-3,-4,-1,-13,1,2025-02-24 12:17:50.956
8,-6,-15,-5,-2,0,-17,1,2025-02-24 12:17:50.967
-2,2,-2,2,-4,-3,18,0,2025-02-24 12:17:50.978
-2,2,-2,2,-4,-3,18,0,2025-02-24 12:17:50.992
9,6,-2,1,-3,0,3,3,2025-02-24 12:17:51.000
20,0,6,-1,-6,-1,-9,-31,2025-02-24 12:17:51.011
-3,15,9,-2,-5,-1,-9,7,2025-02-24 12:17:51.023
-3,15,9,-2,-5,-1,-9,7,2025-02-24 12:17:51.034
-18,4,13,3,-1,-1,-5,-18,2025-02-24 12:17:51.045
-16,6,-39,-9,-3,0,8,20,2025-02-24 12:17:51.056
-3,-4,2,0,-3,1,5,23,2025-02-24 12:17:51.067
-3,-4,2,0,-3,1,5,23,2025-02-24 12:17:51.081
12,8,15,3,-9,-3,7,-13,2025-02-24 12:17:51.092
-7,-4,14,3,-6,-6,-23,-19,2025-02-24 12:17:51.101
-24,-2,-7,-6,-4,-3,-4,1,2025-02-24 12:17:51.112
3,1,-2,3,-1,1,0,-8,2025-02-24 12:17:51.123
3,1,-2,3,-1,1,0,-8,2025-02-24 12:17:51.135
-7,-12,-13,-6,-8,-2,1,-8,2025-02-24 12:17:51.145
16,0,-11,-7,-5,-1,0,23,2025-02-24 12:17:51.156
-23,-9,-5,2,-5,2,13,-4,2025-02-24 12:17:51.167
-23,-9,-5,2,-5,2,13,-4,2025-02-24 12:17:51.178
2,-3,14,0,-7,-3,-12,-18,2025-02-24 12:17:51.190
2,-3,14,0,-7,-3,-12,-18,2025-02-24 12:17:51.204
-2,0,-2,1,1,2,11,10,2025-02-24 12:17:51.212
-2,-3,0,-4,-8,-1,-8,-2,2025-02-24 12:17:51.224
7,-3,-4,-5,-4,-1,0,9,2025-02-24 12:17:51.237
-12,1,14,7,-3,-2,-6,-16,2025-02-24 12:17:51.246
-12,1,14,7,-3,-2,-6,-16,2025-02-24 12:17:51.257
-11,0,6,3,-5,-1,-3,24,2025-02-24 12:17:51.268
-11,0,6,3,-5,-1,-3,24,2025-02-24 12:17:51.279
12,5,-4,-3,-9,-5,-4,-10,2025-02-24 12:17:51.291
-1,-13,-13,-3,-6,-6,0,-13,2025-02-24 12:17:51.302
-1,-13,-13,-3,-6,-6,0,-13,2025-02-24 12:17:51.316
-8,-3,-1,0,-5,1,-5,-9,2025-02-24 12:17:51.324
-8,-3,-1,0,-5,1,-5,-9,2025-02-24 12:17:51.336
8,-6,-8,-8,-2,0,3,29,2025-02-24 12:17:51.347
8,-6,-8,-8,-2,0,3,29,2025-02-24 12:17:51.358
22,0,-3,1,-4,-3,-2,-21,2025-02-24 12:17:51.368
22,0,-3,1,-4,-3,-2,-21,2025-02-24 12:17:51.379
0,-3,19,1,-2,2,-2,12,2025-02-24 12:17:51.393
0,-3,19,1,-2,2,-2,12,2025-02-24 12:17:51.402
-4,3,7,0,-5,-2,1,-3,2025-02-24 12:17:51.413
-4,-3,-8,-4,-7,-4,5,9,2025-02-24 12:17:51.427
-20,0,13,-2,-7,0,1,-2,2025-02-24 12:17:51.435
13,-1,-1,1,-4,-2,-4,11,2025-02-24 12:17:51.447
13,-1,-1,1,-4,-2,-4,11,2025-02-24 12:17:51.458
-5,0,-9,-3,-6,-2,-10,-14,2025-02-24 12:17:51.469
3,-5,-1,-1,-8,-2,-5,-4,2025-02-24 12:17:51.480
9,2,-1,-3,-4,0,6,7,2025-02-24 12:17:51.491
-13,-5,-2,-1,-6,-1,1,-3,2025-02-24 12:17:51.503
0,2,-33,-6,-1,-4,5,-14,2025-02-24 12:17:51.514
1,5,-10,-1,-5,2,0,-4,2025-02-24 12:17:51.528
-5,-4,5,1,-8,0,-2,-2,2025-02-24 12:17:51.536
-7,-15,-6,-3,-4,-2,-1,2,2025-02-24 12:17:51.550
-7,-15,-6,-3,-4,-2,-1,2,2025-02-24 12:17:51.559
-7,-15,-6,-3,-4,-2,-1,2,2025-02-24 12:17:51.570
4,5,10,2,-3,-3,4,7,2025-02-24 12:17:51.581
0,-5,-4,-6,-8,-3,-6,-4,2025-02-24 12:17:51.592
15,5,-19,-3,-6,-1,-6,0,2025-02-24 12:17:51.604
4,-3,-2,0,-4,0,-8,12,2025-02-24 12:17:51.615
5,2,2,0,-3,2,11,15,2025-02-24 12:17:51.626
5,2,2,0,-3,2,11,15,2025-02-24 12:17:51.640
1,5,9,2,-7,-1,4,-13,2025-02-24 12:17:51.648
1,5,9,2,-7,-1,4,-13,2025-02-24 12:17:51.660
3,-6,-6,-3,-8,-3,-12,5,2025-02-24 12:17:51.671
3,-6,-6,-3,-8,-3,-12,5,2025-02-24 12:17:51.682
-5,4,3,1,-3,1,7,7,2025-02-24 12:17:51.693
-5,4,3,1,-3,1,7,7,2025-02-24 12:17:51.707
10,5,-6,-1,0,4,0,-2,2025-02-24 12:17:51.715
-8,-5,-4,-1,-7,-7,3,-1,2025-02-24 12:17:51.727
-6,1,-12,-7,-12,-12,2,-10,2025-02-24 12:17:51.738
-13,-7,-1,-3,-9,-6,-3,-5,2025-02-24 12:17:51.751
-13,-7,-1,-3,-9,-6,-3,-5,2025-02-24 12:17:51.760
-6,-3,11,6,-2,1,-6,-2,2025-02-24 12:17:51.771
-9,-11,-7,-2,-1,1,2,4,2025-02-24 12:17:51.782
-8,-4,-9,-2,-5,0,3,-4,2025-02-24 12:17:51.793
1,-1,-14,-2,-7,-9,-11,-11,2025-02-24 12:17:51.804
1,-1,-14,-2,-7,-9,-11,-11,2025-02-24 12:17:51.816
3,6,-17,-4,-5,-3,-1,4,2025-02-24 12:17:51.826
5,-3,-3,1,-1,7,2,-6,2025-02-24 12:17:51.838
0,-6,-15,-9,-6,0,5,4,2025-02-24 12:17:51.849
0,-6,-15,-9,-6,0,5,4,2025-02-24 12:17:51.863
-7,0,12,8,1,3,0,0,2025-02-24 12:17:51.871
-7,0,12,8,1,3,0,0,2025-02-24 12:17:51.882
0,7,1,0,-5,0,2,6,2025-02-24 12:17:51.894
8,-6,1,-3,-3,1,-4,-1,2025-02-24 12:17:51.905
-5,-3,3,0,-4,-2,-3,-50,2025-02-24 12:17:51.916
9,-7,-8,-5,-8,-4,0,18,2025-02-24 12:17:51.927
9,-7,-8,-5,-8,-4,0,18,2025-02-24 12:17:51.939
8,1,0,-6,-4,0,3,-3,2025-02-24 12:17:51.950
-6,-4,3,1,-5,1,-5,6,2025-02-24 12:17:51.961
0,1,4,-4,-3,4,-1,4,2025-02-24 12:17:51.975
-3,-3,6,3,-7,-2,2,-2,2025-02-24 12:17:51.983
-3,-3,6,3,-7,-2,2,-2,2025-02-24 12:17:51.994
-2,-2,6,-2,-9,-2,-4,0,2025-02-24 12:17:52.006
-2,-2,4,1,-7,-3,-2,2,2025-02-24 12:17:52.019
5,5,6,4,5,10,-2,1,2025-02-24 12:17:52.027
5,5,6,4,5,10,-2,1,2025-02-24 12:17:52.039
-10,6,13,2,-2,2,0,-11,2025-02-24 12:17:52.050
-10,6,13,2,-2,2,0,-11,2025-02-24 12:17:52.061
24,3,4,1,-4,-2,1,10,2025-02-24 12:17:52.073
-8,-5,-11,-7,-6,-1,-2,-1,2025-02-24 12:17:52.086
-3,-1,2,-2,-9,-6,1,-1,2025-02-24 12:17:52.095
1,0,-10,-4,-8,-5,-5,0,2025-02-24 12:17:52.107
-3,0,-5,-3,-3,0,-6,0,2025-02-24 12:17:52.118
-10,-11,-4,-2,-3,-2,1,-3,2025-02-24 12:17:52.129
-10,-11,-4,-2,-3,-2,1,-3,2025-02-24 12:17:52.140
-12,-24,-3,-5,-11,-11,0,-5,2025-02-24 12:17:52.150
-12,-24,-3,-5,-11,-11,0,-5,2025-02-24 12:17:52.161
2,-3,6,0,-3,2,-5,1,2025-02-24 12:17:52.175
5,10,-1,4,-5,-2,6,1,2025-02-24 12:17:52.186
5,10,-1,4,-5,-2,6,1,2025-02-24 12:17:52.195
5,10,-1,4,-5,-2,6,1,2025-02-24 12:17:52.207
-2,1,-17,-7,-5,-2,-2,-4,2025-02-24 12:17:52.218
-4,0,1,1,-6,-5,-7,-1,2025-02-24 12:17:52.229
-4,0,1,1,-6,-5,-7,-1,2025-02-24 12:17:52.240
1,4,-7,0,-6,-4,9,-1,2025-02-24 12:17:52.252
1,4,-7,0,-6,-4,9,-1,2025-02-24 12:17:52.263
-8,-8,8,-6,-5,1,-10,-2,2025-02-24 12:17:52.274
-9,-1,-9,-7,-24,-31,-9,-11,2025-02-24 12:17:52.285
0,-1,-4,-2,-1,4,1,0,2025-02-24 12:17:52.299
-3,-6,-5,-1,1,9,1,2,2025-02-24 12:17:52.307
4,8,3,4,-6,-2,4,0,2025-02-24 12:17:52.318
-1,1,-1,1,-2,-1,1,0,2025-02-24 12:17:52.332
2,3,8,2,-3,2,-5,0,2025-02-24 12:17:52.340
2,3,8,2,-3,2,-5,0,2025-02-24 12:17:52.352
0,2,6,-2,-6,0,-3,-1,2025-02-24 12:17:52.363
-4,-5,-9,-2,-6,-4,-5,-3,2025-02-24 12:17:52.374
-4,-5,-9,-2,-6,-4,-5,-3,2025-02-24 12:17:52.385
1,8,1,3,-4,-2,-3,-1,2025-02-24 12:17:52.397
-3,-5,3,2,-4,3,-1,-2,2025-02-24 12:17:52.410
2,3,4,0,-5,-1,-4,1,2025-02-24 12:17:52.418
-3,-5,-4,-3,-3,0,1,0,2025-02-24 12:17:52.430
-3,-5,-4,-3,-3,0,1,0,2025-02-24 12:17:52.441
-3,1,7,0,-1,2,-2,-2,2025-02-24 12:17:52.452
-3,-2,-15,-5,-1,1,4,-2,2025-02-24 12:17:52.463
2,-5,-9,-2,-7,-1,-1,-1,2025-02-24 12:17:52.475
-2,-5,0,-2,-3,0,1,-1,2025-02-24 12:17:52.488
-5,-7,-15,-1,-6,-1,-2,-1,2025-02-24 12:17:52.496
1,-2,5,0,-6,-3,2,-1,2025-02-24 12:17:52.509
-1,1,5,0,-3,1,0,-3,2025-02-24 12:17:52.523
-1,-3,1,-1,-5,0,-2,-1,2025-02-24 12:17:52.531
-1,-3,1,-1,-5,0,-2,-1,2025-02-24 12:17:52.542
2,-3,1,-2,-5,-1,0,-1,2025-02-24 12:17:52.553
2,-3,1,-2,-5,-1,0,-1,2025-02-24 12:17:52.563
0,1,11,-2,-5,-2,-1,-1,2025-02-24 12:17:52.575
-3,0,7,1,-8,-2,-1,-4,2025-02-24 12:17:52.586
0,7,5,0,-4,-1,0,0,2025-02-24 12:17:52.597
-2,-1,2,0,-5,-2,-1,-2,2025-02-24 12:17:52.609
-2,-1,2,0,-5,-2,-1,-2,2025-02-24 12:17:52.620
-4,-3,-1,0,-3,-1,-2,-1,2025-02-24 12:17:52.645
1,-6,-1,-2,-6,-3,0,0,2025-02-24 12:17:52.652
1,-6,-1,-2,-6,-3,0,0,2025-02-24 12:17:52.657
-2,-1,-6,0,-5,-2,-2,-2,2025-02-24 12:17:52.660
-2,-1,-6,0,-5,-2,-2,-2,2025-02-24 12:17:52.671
-2,-1,-6,0,-5,-2,-2,-2,2025-02-24 12:17:52.682
-6,-12,-2,-3,-5,0,0,0,2025-02-24 12:17:52.693
-2,0,-9,-1,-4,-1,-1,-2,2025-02-24 12:17:52.704
-5,-2,-4,-4,-3,-2,-1,-3,2025-02-24 12:17:52.716
3,2,-5,0,-6,-1,-1,-1,2025-02-24 12:17:52.727
3,2,-5,0,-6,-1,-1,-1,2025-02-24 12:17:52.740
-11,-16,-9,-2,-6,-2,-3,-4,2025-02-24 12:17:52.749
-11,-16,-9,-2,-6,-2,-3,-4,2025-02-24 12:17:52.760
-5,-11,0,-3,-6,-3,-3,-2,2025-02-24 12:17:52.772
0,-1,-8,-3,-5,-1,-1,1,2025-02-24 12:17:52.783
0,0,-15,2,1,0,0,1,2025-02-24 12:17:52.794
0,0,-15,2,1,0,0,1,2025-02-24 12:17:52.805
0,-5,1,-2,-6,-2,-2,-2,2025-02-24 12:17:52.818
3,2,-2,3,-4,-2,0,0,2025-02-24 12:17:52.827
-1,0,0,-3,-7,-2,-1,-4,2025-02-24 12:17:52.838
1,5,7,-1,-2,-1,-1,1,2025-02-24 12:17:52.852
1,5,7,-1,-2,-1,-1,1,2025-02-24 12:17:52.860
0,2,-3,0,-4,0,-2,-1,2025-02-24 12:17:52.872
-3,4,5,-2,-3,1,-3,-2,2025-02-24 12:17:52.883
-3,4,5,-2,-3,1,-3,-2,2025-02-24 12:17:52.894
0,1,4,3,-4,-3,0,-2,2025-02-24 12:17:52.905
-4,-3,0,-3,-3,0,-1,-2,2025-02-24 12:17:52.917
1,2,3,-1,-2,-1,1,-1,2025-02-24 12:17:52.928
1,2,3,-1,-2,-1,1,-1,2025-02-24 12:17:52.939
-5,-5,-5,-5,-6,-2,-3,-1,2025-02-24 12:17:52.952
2,4,3,1,-3,0,0,2,2025-02-24 12:17:52.961
-6,-4,-2,-3,-8,-2,-2,-2,2025-02-24 12:17:52.974
-6,-4,-2,-3,-8,-2,-2,-2,2025-02-24 12:17:52.983
-4,-6,5,-2,-6,0,-1,-2,2025-02-24 12:17:52.994
4,3,-8,1,-4,-2,-2,2,2025-02-24 12:17:53.006
1,3,-5,1,-4,1,-1,-1,2025-02-24 12:17:53.017
2,8,6,1,-4,-2,0,-1,2025-02-24 12:17:53.028
2,8,6,1,-4,-2,0,-1,2025-02-24 12:17:53.040
1,7,-2,-1,-5,-2,-2,-1,2025-02-24 12:17:53.054
0,-2,0,2,-5,-1,-2,-3,2025-02-24 12:17:53.063
1,1,7,2,-4,0,0,1,2025-02-24 12:17:53.074
4,4,-10,1,0,2,2,1,2025-02-24 12:17:53.086
-1,-7,-5,-1,-6,-2,-1,-1,2025-02-24 12:17:53.097
-2,-1,-1,-1,-7,-3,-3,-2,2025-02-24 12:17:53.108
-7,-6,-9,-3,-4,2,-2,-1,2025-02-24 12:17:53.120
2,7,6,1,-3,-1,0,-1,2025-02-24 12:17:53.133
-1,-5,-8,-1,-4,1,-1,-2,2025-02-24 12:17:53.143
-1,-5,-8,-1,-4,1,-1,-2,2025-02-24 12:17:53.154
-2,-5,-1,2,-5,-3,-2,-2,2025-02-24 12:17:53.168
1,9,2,0,-4,-1,-1,0,2025-02-24 12:17:53.177
1,9,2,0,-4,-1,-1,0,2025-02-24 12:17:53.189
1,-1,-6,-1,-2,-2,0,0,2025-02-24 12:17:53.200
1,-1,-6,-1,-2,-2,0,0,2025-02-24 12:17:53.212
5,6,-5,1,-5,1,0,-2,2025-02-24 12:17:53.223
5,0,3,-1,-4,0,-2,0,2025-02-24 12:17:53.233
5,0,3,-1,-4,0,-2,0,2025-02-24 12:17:53.245
-1,-2,-5,-2,-5,-2,0,-1,2025-02-24 12:17:53.257
3,12,-6,4,-3,1,0,-1,2025-02-24 12:17:53.271
-1,-1,-10,-3,-5,-1,-1,0,2025-02-24 12:17:53.281
-1,0,0,1,-4,0,-1,0,2025-02-24 12:17:53.290
-1,0,0,1,-4,0,-1,0,2025-02-24 12:17:53.302
-7,-20,-6,-4,-5,-2,-1,-3,2025-02-24 12:17:53.312
-7,-20,-6,-4,-5,-2,-1,-3,2025-02-24 12:17:53.324
-1,3,-18,-1,-3,-2,-1,-1,2025-02-24 12:17:53.335
-1,3,-18,-1,-3,-2,-1,-1,2025-02-24 12:17:53.346
0,0,16,-2,-5,-2,0,-1,2025-02-24 12:17:53.357
0,0,16,-2,-5,-2,0,-1,2025-02-24 12:17:53.371
-8,6,28,-2,-4,-1,-2,-3,2025-02-24 12:17:53.380
-1,-11,-16,-1,-5,-2,-2,-2,2025-02-24 12:17:53.391
-1,15,6,-4,-7,-2,-1,0,2025-02-24 12:17:53.402
4,7,-11,2,-3,0,0,-1,2025-02-24 12:17:53.413
4,7,-11,2,-3,0,0,-1,2025-02-24 12:17:53.424
1,-4,-12,0,-7,-2,-1,-1,2025-02-24 12:17:53.437
3,-4,-5,2,-1,-1,-1,1,2025-02-24 12:17:53.446
2,-5,-6,1,-3,1,-1,1,2025-02-24 12:17:53.458
-6,-7,-14,-3,-5,-4,-2,-2,2025-02-24 12:17:53.471
-6,-7,-14,-3,-5,-4,-2,-2,2025-02-24 12:17:53.480
-6,-9,6,-3,-6,0,-2,-1,2025-02-24 12:17:53.491
-6,-9,6,-3,-6,0,-2,-1,2025-02-24 12:17:53.502
-3,-3,32,1,-4,-1,-1,0,2025-02-24 12:17:53.514
-3,-3,32,1,-4,-1,-1,0,2025-02-24 12:17:53.525
3,-7,-11,2,-3,0,-2,1,2025-02-24 12:17:53.535
3,-7,-11,2,-3,0,-2,1,2025-02-24 12:17:53.546
-5,-8,-37,-5,-6,-1,-2,-2,2025-02-24 12:17:53.558
4,8,21,0,-4,-1,-1,2,2025-02-24 12:17:53.569
5,14,-8,3,-3,1,0,-1,2025-02-24 12:17:53.583
-4,-16,13,-1,-6,-2,-1,-2,2025-02-24 12:17:53.594
-4,-16,13,-1,-6,-2,-1,-2,2025-02-24 12:17:53.602
-2,5,5,-1,-5,-2,-2,-2,2025-02-24 12:17:53.614
-5,5,-5,-1,-4,-3,-1,-4,2025-02-24 12:17:53.625
1,3,9,-5,-3,-2,0,-3,2025-02-24 12:17:53.637
-5,0,14,0,-5,0,-2,-4,2025-02-24 12:17:53.648
-5,0,14,0,-5,0,-2,-4,2025-02-24 12:17:53.659
0,-3,-16,-2,-5,0,0,-2,2025-02-24 12:17:53.671
0,-27,-31,-4,-5,-1,-2,0,2025-02-24 12:17:53.684
-13,1,0,-8,-10,-4,-3,-3,2025-02-24 12:17:53.693
-13,1,0,-8,-10,-4,-3,-3,2025-02-24 12:17:53.704
1,5,-9,4,-5,-1,-1,1,2025-02-24 12:17:53.714
1,5,-9,4,-5,-1,-1,1,2025-02-24 12:17:53.726
1,6,-5,1,-5,0,-1,-1,2025-02-24 12:17:53.737
-5,-20,-14,-6,-7,-2,-2,-2,2025-02-24 12:17:53.750
-1,-8,-40,-5,-4,-1,-1,-2,2025-02-24 12:17:53.759
-4,-20,30,-1,-6,-1,-3,-4,2025-02-24 12:17:53.771
-4,-20,30,-1,-6,-1,-3,-4,2025-02-24 12:17:53.782
2,18,13,4,-5,0,-1,0,2025-02-24 12:17:53.795
2,-9,-33,-1,-4,-3,-1,-1,2025-02-24 12:17:53.804
3,-1,8,1,-4,1,2,2,2025-02-24 12:17:53.815
3,-1,8,1,-4,1,2,2,2025-02-24 12:17:53.826
-4,-7,16,-3,-5,-3,-1,0,2025-02-24 12:17:53.837
-4,-7,16,-3,-5,-3,-1,0,2025-02-24 12:17:53.848
-3,0,10,2,-4,-1,-2,-3,2025-02-24 12:17:53.860
1,5,-6,-2,-7,-1,-3,1,2025-02-24 12:17:53.871
-4,-6,-50,-1,-3,1,-1,0,2025-02-24 12:17:53.883
-1,3,11,-5,-6,-3,-1,-3,2025-02-24 12:17:53.896
3,9,-2,0,-4,-1,1,0,2025-02-24 12:17:53.907
0,-13,-48,-7,-8,0,0,-2,2025-02-24 12:17:53.915
2,8,40,-2,-9,-3,-1,0,2025-02-24 12:17:53.926
6,10,17,3,-14,0,-1,0,2025-02-24 12:17:53.938
3,14,6,2,-9,-3,2,0,2025-02-24 12:17:53.949
3,14,6,2,-9,-3,2,0,2025-02-24 12:17:53.960
6,10,-42,2,-5,0,0,0,2025-02-24 12:17:53.972
-2,-6,0,0,-10,-1,-2,-1,2025-02-24 12:17:53.982
-8,6,-1,-5,-11,-4,-3,-2,2025-02-24 12:17:53.994
-8,6,-1,-5,-11,-4,-3,-2,2025-02-24 12:17:54.007
0,5,-16,-5,-13,-3,-1,0,2025-02-24 12:17:54.016
0,5,-16,-5,-13,-3,-1,0,2025-02-24 12:17:54.028
1,7,22,4,-8,1,1,1,2025-02-24 12:17:54.039
1,7,22,4,-8,1,1,1,2025-02-24 12:17:54.050
2,-3,-5,-1,-8,0,-2,-1,2025-02-24 12:17:54.063
-1,-6,-5,2,-7,-1,-2,-1,2025-02-24 12:17:54.073
-1,-6,-5,2,-7,-1,-2,-1,2025-02-24 12:17:54.084
2,-4,11,-1,-6,-2,-1,0,2025-02-24 12:17:54.095
-4,-6,13,-2,-10,-2,-1,-2,2025-02-24 12:17:54.106
-3,5,29,-1,-9,-2,-4,-2,2025-02-24 12:17:54.119
-6,-11,-15,-4,-6,-1,-2,-3,2025-02-24 12:17:54.128
-6,-11,-15,-4,-6,-1,-2,-3,2025-02-24 12:17:54.140
2,7,8,4,-6,-1,0,-1,2025-02-24 12:17:54.150
2,7,8,4,-6,-1,0,-1,2025-02-24 12:17:54.161
0,1,-4,-4,-5,-2,-2,1,2025-02-24 12:17:54.173
-3,3,3,1,-7,1,-1,-2,2025-02-24 12:17:54.184
-9,-8,-1,-4,-9,1,-1,-2,2025-02-24 12:17:54.195
-9,-8,-1,-4,-9,1,-1,-2,2025-02-24 12:17:54.206
-1,-1,-12,-1,-7,-1,-2,-2,2025-02-24 12:17:54.219
-1,-1,-12,-1,-7,-1,-2,-2,2025-02-24 12:17:54.230
5,6,8,1,-7,-2,0,1,2025-02-24 12:17:54.239
6,7,-14,1,-4,-1,1,2,2025-02-24 12:17:54.250
6,7,-14,1,-4,-1,1,2,2025-02-24 12:17:54.262
-1,-6,-26,-3,-6,0,-1,-1,2025-02-24 12:17:54.273
-1,-6,-26,-3,-6,0,-1,-1,2025-02-24 12:17:54.284
0,-5,-6,-1,-7,-1,-2,1,2025-02-24 12:17:54.295
0,-5,-6,-1,-7,-1,-2,1,2025-02-24 12:17:54.306
-5,-4,16,-2,-8,-2,-1,-1,2025-02-24 12:17:54.317
-5,-4,16,-2,-8,-2,-1,-1,2025-02-24 12:17:54.329
-4,-1,-6,-1,-8,0,-1,-1,2025-02-24 12:17:54.342
6,13,17,1,-6,-2,-2,1,2025-02-24 12:17:54.350
6,13,17,1,-6,-2,-2,1,2025-02-24 12:17:54.362
0,3,-3,0,-7,-1,-2,-1,2025-02-24 12:17:54.376
0,3,-3,0,-7,-1,-2,-1,2025-02-24 12:17:54.384
-1,-2,-25,-3,-8,-2,0,-1,2025-02-24 12:17:54.396
-1,-2,-25,-3,-8,-2,0,-1,2025-02-24 12:17:54.407
-8,-17,20,-3,-6,-3,-3,-2,2025-02-24 12:17:54.419
1,12,24,0,-6,1,-2,-2,2025-02-24 12:17:54.430
1,12,24,0,-6,1,-2,-2,2025-02-24 12:17:54.441
3,-3,-12,-1,-3,1,1,0,2025-02-24 12:17:54.455
3,-3,-12,-1,-3,1,1,0,2025-02-24 12:17:54.463
1,3,15,-1,-8,-2,0,-1,2025-02-24 12:17:54.475
1,3,15,-1,-8,-2,0,-1,2025-02-24 12:17:54.485
1,-8,-12,2,-4,-2,-2,0,2025-02-24 12:17:54.496
1,-8,-12,2,-4,-2,-2,0,2025-02-24 12:17:54.507
-3,-4,-4,-4,-6,1,-2,0,2025-02-24 12:17:54.518
-3,-4,-4,-4,-6,1,-2,0,2025-02-24 12:17:54.532
-4,-2,2,2,-7,-2,0,-2,2025-02-24 12:17:54.540
-4,-3,-14,-2,-5,-3,0,-1,2025-02-24 12:17:54.552
-4,-3,-14,-2,-5,-3,0,-1,2025-02-24 12:17:54.565
2,1,-40,3,-4,-3,0,0,2025-02-24 12:17:54.574
2,1,-40,3,-4,-3,0,0,2025-02-24 12:17:54.585
-2,-1,5,-4,-6,0,0,-1,2025-02-24 12:17:54.597
4,5,-1,4,-4,-2,-1,-2,2025-02-24 12:17:54.608
-2,1,14,-3,-8,-1,-1,-1,2025-02-24 12:17:54.619
1,-1,-4,-1,-4,-1,-2,-1,2025-02-24 12:17:54.630
1,-1,-4,-1,-4,-1,-2,-1,2025-02-24 12:17:54.641
1,7,9,2,-5,0,-1,0,2025-02-24 12:17:54.653
-1,1,-4,-2,-4,0,-1,0,2025-02-24 12:17:54.666
-7,-10,-11,-3,-5,0,-1,-4,2025-02-24 12:17:54.675
-7,-10,-11,-3,-5,0,-1,-4,2025-02-24 12:17:54.689
4,1,-7,0,-7,-2,0,0,2025-02-24 12:17:54.697
4,1,-7,0,-7,-2,0,0,2025-02-24 12:17:54.709
2,3,-2,1,-7,1,-2,1,2025-02-24 12:17:54.720
-4,-12,4,-6,-10,0,-1,-1,2025-02-24 12:17:54.731
1,2,-6,0,-5,1,0,-1,2025-02-24 12:17:54.742
0,-6,-2,-2,-5,0,-2,0,2025-02-24 12:17:54.753
0,-6,-2,-2,-5,0,-2,0,2025-02-24 12:17:54.765
-1,1,7,1,-4,-1,0,0,2025-02-24 12:17:54.778
2,3,0,1,-5,-1,-2,0,2025-02-24 12:17:54.787
-5,-6,0,-1,-7,-2,-3,-3,2025-02-24 12:17:54.798
-5,-6,0,-1,-7,-2,-3,-3,2025-02-24 12:17:54.809
-3,-3,-10,5,-5,-2,-3,-2,2025-02-24 12:17:54.821
-3,-3,-10,5,-5,-2,-3,-2,2025-02-24 12:17:54.832
-5,-9,-9,-5,-5,0,-1,-2,2025-02-24 12:17:54.845
-1,1,5,-1,-2,0,0,-3,2025-02-24 12:17:54.855
-1,1,5,-1,-2,0,0,-3,2025-02-24 12:17:54.864
1,0,-2,-1,-3,-2,-1,0,2025-02-24 12:17:54.878
1,0,-2,-1,-3,-2,-1,0,2025-02-24 12:17:54.887
-1,1,-16,-2,-2,-2,1,0,2025-02-24 12:17:54.898
-2,-1,7,2,-3,-1,-1,0,2025-02-24 12:17:54.909
0,4,10,-5,-6,-1,-2,-2,2025-02-24 12:17:54.921
-11,-12,-22,-6,-7,-4,-3,-5,2025-02-24 12:17:54.932
6,5,5,0,-4,0,0,2,2025-02-24 12:17:54.943
-1,0,1,-2,-6,-1,-1,1,2025-02-24 12:17:54.954
-1,0,1,-2,-6,-1,-1,1,2025-02-24 12:17:54.965
1,3,14,0,-6,0,-1,-1,2025-02-24 12:17:54.977
1,3,14,0,-6,0,-1,-1,2025-02-24 12:17:54.990
-5,-9,-3,-3,-5,-1,-1,-2,2025-02-24 12:17:55.001
-5,-9,-3,-3,-5,-1,-1,-2,2025-02-24 12:17:55.010
-3,1,8,-1,-5,-2,-2,-1,2025-02-24 12:17:55.021
-3,1,8,-1,-5,-2,-2,-1,2025-02-24 12:17:55.033
-5,-9,1,-3,-3,0,-1,-3,2025-02-24 12:17:55.044
-2,5,19,-4,-4,-3,-1,-1,2025-02-24 12:17:55.055
-2,5,19,-4,-4,-3,-1,-1,2025-02-24 12:17:55.066
0,-7,-25,-2,-3,-1,-1,-3,2025-02-24 12:17:55.077
0,-7,-25,-2,-3,-1,-1,-3,2025-02-24 12:17:55.089
-5,-5,-7,-4,-6,-2,-1,-1,2025-02-24 12:17:55.102
-2,-1,13,0,-5,0,-3,-1,2025-02-24 12:17:55.111
-2,0,-2,1,-4,-1,-2,-2,2025-02-24 12:17:55.122
-3,-2,-17,1,-4,0,-2,-1,2025-02-24 12:17:55.133
5,21,-6,0,-2,0,-1,1,2025-02-24 12:17:55.145
-2,-3,6,-5,0,-2,-2,0,2025-02-24 12:17:55.158
1,1,-7,1,-4,-1,0,-1,2025-02-24 12:17:55.167
-2,-10,-1,-1,-4,-3,0,-2,2025-02-24 12:17:55.178
-2,-10,-1,-1,-4,-3,0,-2,2025-02-24 12:17:55.190
-1,-2,-5,0,-5,0,-1,-1,2025-02-24 12:17:55.200
-1,-2,-5,0,-5,0,-1,-1,2025-02-24 12:17:55.214
-3,-5,-3,2,-6,-3,-1,-2,2025-02-24 12:17:55.223
-6,-7,-3,-7,-7,-3,-3,-3,2025-02-24 12:17:55.234
-6,-7,-3,-7,-7,-3,-3,-3,2025-02-24 12:17:55.245
-1,5,-6,-2,-5,-2,-2,0,2025-02-24 12:17:55.257
-1,5,-6,-2,-5,-2,-2,0,2025-02-24 12:17:55.268
-1,5,-6,-2,-5,-2,-2,0,2025-02-24 12:17:55.278
-5,-4,-4,-4,-1,-2,-2,-2,2025-02-24 12:17:55.289
3,4,3,3,-1,-2,0,0,2025-02-24 12:17:55.300
3,4,3,3,-1,-2,0,0,2025-02-24 12:17:55.314
-1,-2,-3,-2,-3,1,-1,-1,2025-02-24 12:17:55.325
0,1,-9,0,-2,0,0,0,2025-02-24 12:17:55.334
0,1,-9,0,-2,0,0,0,2025-02-24 12:17:55.346
-1,12,24,-2,0,1,-1,-3,2025-02-24 12:17:55.357
-1,12,24,-2,0,1,-1,-3,2025-02-24 12:17:55.368
0,-7,-16,-2,-5,-2,-1,0,2025-02-24 12:17:55.379
0,-7,-16,-2,-5,-2,-1,0,2025-02-24 12:17:55.390
-1,-5,-11,-1,-5,0,0,-1,2025-02-24 12:17:55.401
-3,-12,7,0,-5,0,0,-1,2025-02-24 12:17:55.413
-3,-12,7,0,-5,0,0,-1,2025-02-24 12:17:55.424
-3,-12,7,0,-5,0,0,-1,2025-02-24 12:17:55.437
0,1,-6,0,-6,-1,-2,-2,2025-02-24 12:17:55.446
-3,-2,-8,0,-3,-1,-1,-1,2025-02-24 12:17:55.457
-3,-2,-8,0,-3,-1,-1,-1,2025-02-24 12:17:55.470
0,1,-5,1,0,-1,-1,-1,2025-02-24 12:17:55.479
0,1,-5,1,0,-1,-1,-1,2025-02-24 12:17:55.491
0,-8,10,-3,-5,-1,-2,-1,2025-02-24 12:17:55.502
0,-8,10,-3,-5,-1,-2,-1,2025-02-24 12:17:55.513
0,-1,-6,0,-6,-1,-2,-1,2025-02-24 12:17:55.524
-3,-1,-2,-2,-8,0,-1,-3,2025-02-24 12:17:55.538
1,1,0,4,-2,3,-2,1,2025-02-24 12:17:55.547
-2,5,-28,-4,1,-7,-3,-2,2025-02-24 12:17:55.558
-2,5,-28,-4,1,-7,-3,-2,2025-02-24 12:17:55.569
-1,-6,3,-1,-4,1,1,1,2025-02-24 12:17:55.580
0,1,6,-5,-21,-4,-2,-2,2025-02-24 12:17:55.591
-1,-2,-24,-4,-4,-1,-1,-1,2025-02-24 12:17:55.603
-2,-3,2,2,-4,-1,-3,-3,2025-02-24 12:17:55.614
-1,9,5,-4,-13,0,0,-1,2025-02-24 12:17:55.627
-4,-7,13,-5,-12,-2,-2,0,2025-02-24 12:17:55.639
-1,-7,2,-3,-6,-1,-1,0,2025-02-24 12:17:55.647
1,-3,5,6,-2,2,1,-1,2025-02-24 12:17:55.658
1,-3,5,6,-2,2,1,-1,2025-02-24 12:17:55.669
-3,-6,-8,1,-5,-1,-3,-1,2025-02-24 12:17:55.680
-3,-6,-8,1,-5,-1,-3,-1,2025-02-24 12:17:55.691
1,4,-2,-1,-4,2,1,0,2025-02-24 12:17:55.702
1,3,-3,3,1,0,2,0,2025-02-24 12:17:55.714
-4,0,21,-5,-11,-4,-4,-1,2025-02-24 12:17:55.725
0,-2,8,-1,-10,-3,-2,0,2025-02-24 12:17:55.736
0,2,-1,0,-1,0,-1,0,2025-02-24 12:17:55.750
-2,-12,-21,-3,-8,-2,-3,-3,2025-02-24 12:17:55.758
-1,-2,-27,0,-3,-1,1,-2,2025-02-24 12:17:55.770
0,6,-9,1,-3,0,0,-1,2025-02-24 12:17:55.783
0,11,5,-1,-7,1,1,-1,2025-02-24 12:17:55.792
0,11,5,-1,-7,1,1,-1,2025-02-24 12:17:55.803
-1,5,6,-1,-16,-2,-3,-2,2025-02-24 12:17:55.814
-1,-4,10,0,-38,-1,0,-1,2025-02-24 12:17:55.826
-1,-2,14,-3,-39,-2,-2,-2,2025-02-24 12:17:55.837
-4,-10,1,0,-48,-1,-3,-1,2025-02-24 12:17:55.850
1,-6,3,-2,-40,-1,-1,0,2025-02-24 12:17:55.859
1,-6,3,-2,-40,-1,-1,0,2025-02-24 12:17:55.871
-1,-1,3,2,-45,-1,0,0,2025-02-24 12:17:55.882
-4,-19,-13,-3,-39,0,0,0,2025-02-24 12:17:55.893
0,10,5,-6,-41,-5,-1,-3,2025-02-24 12:17:55.904
2,6,2,2,-33,1,1,-1,2025-02-24 12:17:55.916
1,-2,4,-1,-33,3,0,0,2025-02-24 12:17:55.926
-1,6,-6,-3,-35,-2,-2,-2,2025-02-24 12:17:55.940
-1,6,-6,-3,-35,-2,-2,-2,2025-02-24 12:17:55.951
-3,-1,3,-1,-30,-2,-1,-1,2025-02-24 12:17:55.960
-3,-1,3,-1,-30,-2,-1,-1,2025-02-24 12:17:55.971
0,0,-3,3,-29,-1,0,-2,2025-02-24 12:17:55.982
0,0,-3,3,-29,-1,0,-2,2025-02-24 12:17:55.993
-1,1,11,-1,-27,-1,-1,-1,2025-02-24 12:17:56.005
-1,1,11,-1,-27,-1,-1,-1,2025-02-24 12:17:56.016
-2,-8,1,-7,-17,0,0,-1,2025-02-24 12:17:56.027
-1,-2,-3,2,-12,0,0,-2,2025-02-24 12:17:56.038
-1,-3,0,-1,-12,-1,-2,-1,2025-02-24 12:17:56.049
-1,-3,0,-1,-12,-1,-2,-1,2025-02-24 12:17:56.063
0,5,-5,0,-12,-1,-2,-1,2025-02-24 12:17:56.071
-2,7,1,0,-12,-2,-2,0,2025-02-24 12:17:56.083
-3,-3,-20,-2,-20,0,-2,0,2025-02-24 12:17:56.098
-1,-8,0,0,-43,-2,-2,0,2025-02-24 12:17:56.105
1,0,3,-4,-46,-1,-1,-2,2025-02-24 12:17:56.116
1,0,3,-4,-46,-1,-1,-2,2025-02-24 12:17:56.128
-2,-5,-11,-2,-37,-2,-1,1,2025-02-24 12:17:56.139
-2,-5,-11,-2,-37,-2,-1,1,2025-02-24 12:17:56.151
1,6,1,0,-45,-3,-1,-2,2025-02-24 12:17:56.164
-1,10,1,-1,-37,0,0,0,2025-02-24 12:17:56.173
1,15,-12,2,-36,-1,1,-4,2025-02-24 12:17:56.184
1,15,-12,2,-36,-1,1,-4,2025-02-24 12:17:56.195
0,-4,4,0,-33,0,-1,-1,2025-02-24 12:17:56.206
-1,-7,20,1,-10,-2,0,-2,2025-02-24 12:17:56.216
-1,-4,18,-2,-4,-1,-3,-1,2025-02-24 12:17:56.228
-1,-2,8,-2,-4,-2,-1,1,2025-02-24 12:17:56.240
-1,-5,7,-1,-1,-1,-1,-2,2025-02-24 12:17:56.256
-4,-22,3,-2,-2,1,1,-2,2025-02-24 12:17:56.266
0,0,-2,-4,-8,-2,-2,1,2025-02-24 12:17:56.273
-1,7,12,0,-4,-1,-1,-1,2025-02-24 12:17:56.284
-1,7,12,0,-4,-1,-1,-1,2025-02-24 12:17:56.295
-1,7,12,0,-4,-1,-1,-1,2025-02-24 12:17:56.307
0,3,-7,0,-2,-1,-1,-2,2025-02-24 12:17:56.318
-1,-7,2,-3,-4,-2,-1,-2,2025-02-24 12:17:56.329
-1,-14,-1,1,-5,-3,0,-1,2025-02-24 12:17:56.340
-3,-8,3,-5,-6,-2,-2,-2,2025-02-24 12:17:56.351
-6,-18,-6,-1,-5,-2,-3,-2,2025-02-24 12:17:56.362
-6,-18,-6,-1,-5,-2,-3,-2,2025-02-24 12:17:56.376
0,1,-4,6,1,1,1,0,2025-02-24 12:17:56.384
-3,-2,-4,0,-6,-1,-1,-1,2025-02-24 12:17:56.396
-4,-17,0,-3,-3,0,2,-3,2025-02-24 12:17:56.409
1,-6,-9,-2,-7,-3,-1,1,2025-02-24 12:17:56.418
1,-6,-9,-2,-7,-3,-1,1,2025-02-24 12:17:56.429
2,0,5,-3,-5,-2,0,-1,2025-02-24 12:17:56.440
2,0,5,-3,-5,-2,0,-1,2025-02-24 12:17:56.451
-1,5,12,6,-3,-1,-1,-1,2025-02-24 12:17:56.462
-1,5,12,6,-3,-1,-1,-1,2025-02-24 12:17:56.476
-2,7,-4,-3,-9,-4,-1,1,2025-02-24 12:17:56.485
-2,7,-4,-3,-9,-4,-1,1,2025-02-24 12:17:56.496
1,10,-5,-8,-9,-1,-2,-1,2025-02-24 12:17:56.508
-4,2,-2,0,-4,0,-1,-2,2025-02-24 12:17:56.518
-3,-6,-3,0,-5,-2,-1,-2,2025-02-24 12:17:56.530
0,-2,-5,-2,-4,-1,-2,-2,2025-02-24 12:17:56.542
0,-2,-5,-2,-4,-1,-2,-2,2025-02-24 12:17:56.552
1,-3,-2,0,-3,1,0,-1,2025-02-24 12:17:56.566
-2,0,0,4,-6,-2,-2,-1,2025-02-24 12:17:56.577
-1,-3,-1,-3,-4,-1,-2,0,2025-02-24 12:17:56.586
-3,-11,-7,-4,-6,-1,-2,-1,2025-02-24 12:17:56.597
1,9,-5,-2,-2,0,-1,-2,2025-02-24 12:17:56.607
-1,-21,-7,3,-4,-1,-1,-1,2025-02-24 12:17:56.618
-3,-4,3,-2,-5,-3,0,0,2025-02-24 12:17:56.630
-2,-3,8,4,-4,0,-1,-3,2025-02-24 12:17:56.641
-2,-3,8,4,-4,0,-1,-3,2025-02-24 12:17:56.652
-2,1,16,-2,-7,-3,-2,-3,2025-02-24 12:17:56.664
-2,1,16,-2,-7,-3,-2,-3,2025-02-24 12:17:56.675
1,1,-8,2,-5,-1,-2,-1,2025-02-24 12:17:56.689
-2,0,7,1,-4,-1,0,0,2025-02-24 12:17:56.697
-3,-5,-3,-3,-6,-2,0,0,2025-02-24 12:17:56.708
1,-1,-8,-1,-1,-2,-1,0,2025-02-24 12:17:56.721
1,-1,-8,-1,-1,-2,-1,0,2025-02-24 12:17:56.730
1,-4,0,-3,-4,0,1,-1,2025-02-24 12:17:56.742
-1,7,3,-2,-6,-2,0,-1,2025-02-24 12:17:56.753
0,3,-6,-1,-8,-5,-2,-1,2025-02-24 12:17:56.764
-1,-16,12,2,-3,2,1,1,2025-02-24 12:17:56.775
-7,-19,-3,-8,-20,-5,-6,-1,2025-02-24 12:17:56.787
-7,-19,-3,-8,-20,-5,-6,-1,2025-02-24 12:17:56.800
2,3,1,-5,-6,-3,-1,-1,2025-02-24 12:17:56.809
-1,-4,2,-7,-16,-4,-5,-2,2025-02-24 12:17:56.820
-2,8,14,3,-2,1,0,-1,2025-02-24 12:17:56.830
0,9,7,-1,-6,-2,-1,-1,2025-02-24 12:17:56.842
-1,-1,-1,-1,4,2,1,0,2025-02-24 12:17:56.853
-1,-1,-1,-1,4,2,1,0,2025-02-24 12:17:56.864
-2,-8,-5,15,4,10,0,-2,2025-02-24 12:17:56.878
-2,2,-1,-8,-8,-3,-2,0,2025-02-24 12:17:56.887
-1,2,-4,-3,-5,1,-1,-2,2025-02-24 12:17:56.898
-1,1,-1,0,-2,-1,-2,-1,2025-02-24 12:17:56.911
-1,2,-2,-6,-9,-2,1,-1,2025-02-24 12:17:56.921
-1,2,-2,-6,-9,-2,1,-1,2025-02-24 12:17:56.937
-1,-4,0,-2,-9,-3,-3,-1,2025-02-24 12:17:56.943
-1,-4,0,-2,-9,-3,-3,-1,2025-02-24 12:17:56.954
-1,10,3,-3,-5,-1,-2,-2,2025-02-24 12:17:56.966
-2,-14,-4,-4,-3,-3,-1,-3,2025-02-24 12:17:56.977
-1,1,2,-4,-3,-1,1,-2,2025-02-24 12:17:56.987
-1,1,2,-4,-3,-1,1,-2,2025-02-24 12:17:56.998
-1,1,0,1,-3,1,-2,-2,2025-02-24 12:17:57.009
-1,1,0,1,-3,1,-2,-2,2025-02-24 12:17:57.024
-2,1,-1,-2,-1,-1,-1,0,2025-02-24 12:17:57.051
-1,2,-2,-3,-8,6,3,-1,2025-02-24 12:17:57.064
0,1,3,-1,-6,2,0,0,2025-02-24 12:17:57.071
-4,2,-4,-2,-34,-4,-3,-3,2025-02-24 12:17:57.075
-4,2,-4,-2,-34,-4,-3,-3,2025-02-24 12:17:57.086
-2,-1,-2,-2,-39,-1,0,0,2025-02-24 12:17:57.097
0,-2,-2,-1,-35,0,-1,1,2025-02-24 12:17:57.109
-2,2,-1,0,-24,-4,-1,-2,2025-02-24 12:17:57.120
0,-3,-5,-4,-17,-5,-2,-2,2025-02-24 12:17:57.131
0,-3,-5,-4,-17,-5,-2,-2,2025-02-24 12:17:57.142
-2,-1,-2,-1,-6,-3,-1,-2,2025-02-24 12:17:57.154
2,0,0,2,-4,0,-1,0,2025-02-24 12:17:57.165
-1,0,-2,0,-6,-1,-2,-1,2025-02-24 12:17:57.176
0,0,-3,-4,-6,0,-4,-1,2025-02-24 12:17:57.190
2,-1,1,1,-7,1,0,0,2025-02-24 12:17:57.198
-2,0,-2,-1,-6,-13,-7,-2,2025-02-24 12:17:57.210
0,0,1,1,-3,9,10,2,2025-02-24 12:17:57.221
0,0,-1,-2,-27,5,1,1,2025-02-24 12:17:57.232
0,-1,-2,1,-12,-4,10,6,2025-02-24 12:17:57.243
-1,0,-1,-4,-6,-1,-2,4,2025-02-24 12:17:57.254
-1,0,-1,-4,-6,-1,-2,4,2025-02-24 12:17:57.265
-1,-2,-2,-2,-28,-2,5,0,2025-02-24 12:17:57.277
8,5,2,3,-8,0,-5,1,2025-02-24 12:17:57.288
8,5,2,3,-8,0,-5,1,2025-02-24 12:17:57.300
-4,-1,0,0,-6,-12,-5,-7,2025-02-24 12:17:57.311
-2,-1,-3,2,-2,4,2,-4,2025-02-24 12:17:57.322
-2,-4,-1,-1,-3,-1,-1,-6,2025-02-24 12:17:57.333
-2,-3,-1,-4,-5,0,1,3,2025-02-24 12:17:57.344
-2,-3,-1,-4,-5,0,1,3,2025-02-24 12:17:57.356
-3,-1,-1,-2,-15,1,-1,1,2025-02-24 12:17:57.366
-3,-1,-1,-2,-15,1,-1,1,2025-02-24 12:17:57.377
-1,-3,1,-1,-16,0,-1,-3,2025-02-24 12:17:57.391
-2,-2,-1,-1,-12,-2,-1,-2,2025-02-24 12:17:57.399
-2,-2,-1,-1,-12,-2,-1,-2,2025-02-24 12:17:57.411
-1,-1,0,-2,-12,-3,-2,-2,2025-02-24 12:17:57.422
-1,-1,0,-2,-12,-3,-2,-2,2025-02-24 12:17:57.433
-3,-3,-2,-1,-13,-1,0,-1,2025-02-24 12:17:57.445
-3,-3,-2,-1,-13,-1,0,-1,2025-02-24 12:17:57.456
-28,2,4,-5,-12,-1,-1,-5,2025-02-24 12:17:57.467
-28,2,4,-5,-12,-1,-1,-5,2025-02-24 12:17:57.478
-1,0,-2,0,-14,-1,-2,1,2025-02-24 12:17:57.490
0,-1,0,-1,-13,1,0,-1,2025-02-24 12:17:57.501
7,-4,-1,-2,-11,-2,-2,1,2025-02-24 12:17:57.512
5,9,-4,1,-7,-2,-1,0,2025-02-24 12:17:57.524
5,9,-4,1,-7,-2,-1,0,2025-02-24 12:17:57.535
1,-6,-1,-2,-5,1,0,-2,2025-02-24 12:17:57.546
-4,10,-3,0,-6,-1,-1,-1,2025-02-24 12:17:57.557
-4,10,-3,0,-6,-1,-1,-1,2025-02-24 12:17:57.568
-12,-25,-6,-2,-7,-1,-3,-2,2025-02-24 12:17:57.579
-12,-25,-6,-2,-7,-1,-3,-2,2025-02-24 12:17:57.591
-1,-5,1,-1,-3,-1,-3,1,2025-02-24 12:17:57.602
-1,-5,1,-1,-3,-1,-3,1,2025-02-24 12:17:57.613
4,4,-1,0,-6,0,-1,0,2025-02-24 12:17:57.625
3,2,-1,-2,-3,-3,-3,4,2025-02-24 12:17:57.635
6,3,-3,-2,-2,-1,1,-2,2025-02-24 12:17:57.647
-7,0,-3,-1,-5,-4,-3,-9,2025-02-24 12:17:57.661
4,-28,-2,0,-2,0,-2,14,2025-02-24 12:17:57.672
2,-2,0,-2,-3,-1,-6,3,2025-02-24 12:17:57.680
2,-2,0,-2,-3,-1,-6,3,2025-02-24 12:17:57.692
-5,3,-1,-1,-20,-3,1,-5,2025-02-24 12:17:57.703
-5,3,-1,-1,-20,-3,1,-5,2025-02-24 12:17:57.714
-30,-2,-1,0,-24,-2,-4,-45,2025-02-24 12:17:57.725
6,5,2,-1,-35,1,1,-5,2025-02-24 12:17:57.738
6,5,2,-1,-35,1,1,-5,2025-02-24 12:17:57.747
-20,-11,-5,0,-5,-1,-1,-8,2025-02-24 12:17:57.759
4,-15,-3,-4,-4,1,2,3,2025-02-24 12:17:57.770
4,-15,-3,-4,-4,1,2,3,2025-02-24 12:17:57.781
3,13,-1,-2,-5,0,1,12,2025-02-24 12:17:57.791
-4,7,-3,3,-5,-4,-2,-13,2025-02-24 12:17:57.802
-4,7,-3,3,-5,-4,-2,-13,2025-02-24 12:17:57.814
7,1,-1,-1,-5,1,0,15,2025-02-24 12:17:57.825
7,1,-1,-1,-5,1,0,15,2025-02-24 12:17:57.836
14,-14,-1,0,-2,2,1,-2,2025-02-24 12:17:57.848
14,-14,-1,0,-2,2,1,-2,2025-02-24 12:17:57.859
16,8,1,1,-4,-1,2,5,2025-02-24 12:17:57.870
-13,-7,0,-3,-3,0,-2,1,2025-02-24 12:17:57.882
-4,-33,-3,0,-7,-2,-1,-9,2025-02-24 12:17:57.893
-23,9,-2,-1,-5,-1,0,1,2025-02-24 12:17:57.904
-12,-8,-1,0,-7,-3,-4,-6,2025-02-24 12:17:57.915
-14,-5,-2,0,-6,-3,0,4,2025-02-24 12:17:57.926
-14,-5,-2,0,-6,-3,0,4,2025-02-24 12:17:57.937
19,2,2,-2,-2,2,-1,12,2025-02-24 12:17:57.948
19,2,2,-2,-2,2,-1,12,2025-02-24 12:17:57.959
-1,11,2,0,-3,-2,-4,-5,2025-02-24 12:17:57.971
-1,11,2,0,-3,-2,-4,-5,2025-02-24 12:17:57.981
2,-22,1,-2,-3,-1,-2,-4,2025-02-24 12:17:57.993
-7,4,-1,1,-5,0,0,-4,2025-02-24 12:17:58.004
-12,17,-2,-1,-5,-2,0,-43,2025-02-24 12:17:58.015
-12,17,-2,-1,-5,-2,0,-43,2025-02-24 12:17:58.026
-6,-24,0,0,-3,0,4,14,2025-02-24 12:17:58.038
-1,2,1,-2,-6,-2,-2,4,2025-02-24 12:17:58.049
19,-2,-2,-1,-4,0,2,6,2025-02-24 12:17:58.060
19,-2,-2,-1,-4,0,2,6,2025-02-24 12:17:58.071
11,-8,1,-6,-6,-1,3,-17,2025-02-24 12:17:58.082
6,9,0,-6,1,2,-1,4,2025-02-24 12:17:58.094
25,5,-3,0,-6,0,1,15,2025-02-24 12:17:58.105
25,5,-3,0,-6,0,1,15,2025-02-24 12:17:58.116
-29,14,0,-1,-1,1,0,1,2025-02-24 12:17:58.127
3,4,-2,-1,-5,-1,-2,4,2025-02-24 12:17:58.139
-2,-3,0,-2,-5,-2,-1,-1,2025-02-24 12:17:58.149
-2,-3,0,-2,-5,-2,-1,-1,2025-02-24 12:17:58.161
-7,6,0,0,-6,-1,-3,-5,2025-02-24 12:17:58.171
24,2,1,0,-4,0,-2,12,2025-02-24 12:17:58.182
-29,-5,-2,-3,-8,-1,-2,-14,2025-02-24 12:17:58.193
-12,5,-4,0,-4,0,1,-8,2025-02-24 12:17:58.205
4,-33,-3,-1,-6,-3,-2,3,2025-02-24 12:17:58.216
-2,2,1,-1,-4,-1,-1,6,2025-02-24 12:17:58.227
-2,2,1,-1,-4,-1,-1,6,2025-02-24 12:17:58.239
-5,4,-3,0,-5,0,0,0,2025-02-24 12:17:58.249
23,10,4,-1,-2,1,3,15,2025-02-24 12:17:58.261
-16,10,-2,-2,-4,-3,1,2,2025-02-24 12:17:58.272
-10,2,-1,1,-4,-1,-1,6,2025-02-24 12:17:58.283
25,-9,-7,0,-5,0,-2,7,2025-02-24 12:17:58.294
14,7,4,1,-4,0,-1,8,2025-02-24 12:17:58.306
14,7,4,1,-4,0,-1,8,2025-02-24 12:17:58.316
-3,-2,-4,-2,-5,-6,2,-4,2025-02-24 12:17:58.328
-3,-2,-4,-2,-5,-6,2,-4,2025-02-24 12:17:58.339
12,-5,1,-3,-4,1,-2,13,2025-02-24 12:17:58.350
-1,8,-1,1,-20,-1,2,5,2025-02-24 12:17:58.361
10,-2,2,-2,-39,1,0,5,2025-02-24 12:17:58.373
5,0,1,-2,-36,0,9,-2,2025-02-24 12:17:58.384
5,0,1,-2,-36,0,9,-2,2025-02-24 12:17:58.395
4,-3,-4,1,-8,0,10,8,2025-02-24 12:17:58.406
4,-3,-4,1,-8,0,10,8,2025-02-24 12:17:58.417
13,-12,-4,-4,-10,-2,5,5,2025-02-24 12:17:58.428
-1,7,1,0,-5,0,-3,-27,2025-02-24 12:17:58.439
-3,9,1,1,-3,3,3,5,2025-02-24 12:17:58.450
-3,9,1,1,-3,3,3,5,2025-02-24 12:17:58.462
-19,8,4,-1,-7,-2,-11,5,2025-02-24 12:17:58.473
-50,6,-6,1,-7,-5,-1,-41,2025-02-24 12:17:58.484
54,-13,-4,-1,-7,-6,-25,-10,2025-02-24 12:17:58.495
10,5,-7,-1,-11,-18,-4,-6,2025-02-24 12:17:58.506
10,5,-7,-1,-11,-18,-4,-6,2025-02-24 12:17:58.518
18,1,-3,-3,-4,2,17,8,2025-02-24 12:17:58.529
-8,10,6,0,1,12,67,13,2025-02-24 12:17:58.541
-17,11,-2,2,-4,0,33,9,2025-02-24 12:17:58.551
6,2,6,1,-2,2,-19,12,2025-02-24 12:17:58.562
9,2,2,-1,-9,-8,4,-10,2025-02-24 12:17:58.573
-3,-8,0,-5,-5,11,99,11,2025-02-24 12:17:58.584
-3,-8,0,-5,-5,11,99,11,2025-02-24 12:17:58.596
-34,-2,1,1,1,2,-60,-28,2025-02-24 12:17:58.607
-34,-2,1,1,1,2,-60,-28,2025-02-24 12:17:58.618
-5,7,1,2,-5,-4,4,22,2025-02-24 12:17:58.630
-5,7,1,2,-5,-4,4,22,2025-02-24 12:17:58.641
-5,-10,-5,2,-4,-6,-10,3,2025-02-24 12:17:58.652
0,-9,0,-3,-7,-1,-12,-38,2025-02-24 12:17:58.663
-5,-10,3,-4,-13,-4,66,-17,2025-02-24 12:17:58.675
-47,5,-7,-1,-8,-2,-58,-9,2025-02-24 12:17:58.686
-10,-5,-2,-3,-14,-8,-48,5,2025-02-24 12:17:58.697
-10,1,-1,-3,-12,14,-44,-5,2025-02-24 12:17:58.708
-11,23,0,3,-18,-9,-10,-70,2025-02-24 12:17:58.719
-3,-2,-1,0,-16,3,7,-9,2025-02-24 12:17:58.730
-4,4,2,-3,-23,-6,-15,14,2025-02-24 12:17:58.741
31,-8,-7,-3,-24,-4,-9,-10,2025-02-24 12:17:58.752
41,-38,-13,-6,-25,-3,-4,-9,2025-02-24 12:17:58.764
-21,-12,1,-1,-13,16,60,21,2025-02-24 12:17:58.775
-53,-45,-3,-5,-31,-17,10,7,2025-02-24 12:17:58.786
-12,-13,-4,-4,-29,-6,-28,-24,2025-02-24 12:17:58.798
-12,14,-8,-3,-28,-12,-10,-18,2025-02-24 12:17:58.808
-12,14,-8,-3,-28,-12,-10,-18,2025-02-24 12:17:58.819
-32,-7,-13,-6,-17,-1,32,-1,2025-02-24 12:17:58.830
-32,-7,-13,-6,-17,-1,32,-1,2025-02-24 12:17:58.841
71,5,0,1,-24,1,4,21,2025-02-24 12:17:58.853
15,18,4,1,-22,1,10,-15,2025-02-24 12:17:58.864
0,6,-5,1,-28,-3,-47,-32,2025-02-24 12:17:58.876
-24,1,-2,0,-33,-10,-83,-1,2025-02-24 12:17:58.886
-24,1,-2,0,-33,-10,-83,-1,2025-02-24 12:17:58.898
46,11,8,4,-7,6,13,56,2025-02-24 12:17:58.909
66,-7,-2,-1,-15,-9,-2,56,2025-02-24 12:17:58.920
32,6,9,-1,-9,3,-32,-7,2025-02-24 12:17:58.931
32,6,9,-1,-9,3,-32,-7,2025-02-24 12:17:58.942
0,-4,-3,-1,-9,-5,9,0,2025-02-24 12:17:58.953
11,22,-2,-1,-7,5,10,-19,2025-02-24 12:17:58.964
-14,-7,1,0,-3,7,6,-7,2025-02-24 12:17:58.975
-51,0,-1,1,-7,-11,-49,13,2025-02-24 12:17:58.987
-36,1,-1,0,-5,1,13,-3,2025-02-24 12:17:58.998
-14,-35,-5,-3,-6,0,-3,11,2025-02-24 12:17:59.009
-14,-35,-5,-3,-6,0,-3,11,2025-02-24 12:17:59.020
-4,39,4,0,-16,-16,38,-15,2025-02-24 12:17:59.032
-8,-12,-3,-7,-12,-5,71,-9,2025-02-24 12:17:59.043
-27,28,2,0,-4,20,73,-16,2025-02-24 12:17:59.054
81,-16,-23,-5,-14,-15,-88,22,2025-02-24 12:17:59.066
81,-16,-23,-5,-14,-15,-88,22,2025-02-24 12:17:59.077
-97,-15,-10,0,-8,4,-30,-68,2025-02-24 12:17:59.088
-97,-15,-10,0,-8,4,-30,-68,2025-02-24 12:17:59.099
12,13,4,1,-4,-1,-32,6,2025-02-24 12:17:59.110
12,13,4,1,-4,-1,-32,6,2025-02-24 12:17:59.121
-96,8,28,-3,-7,12,9,-9,2025-02-24 12:17:59.132
18,-9,-8,3,-3,14,68,-18,2025-02-24 12:17:59.143
35,9,0,-3,-12,-5,-50,40,2025-02-24 12:17:59.154
25,3,7,-2,-11,-17,-87,5,2025-02-24 12:17:59.166
26,6,6,-5,-5,12,-7,6,2025-02-24 12:17:59.177
-93,-11,4,-2,-8,8,71,-6,2025-02-24 12:17:59.188
59,23,11,1,3,10,88,32,2025-02-24 12:17:59.199
-65,-19,-1,1,-8,-5,-9,-16,2025-02-24 12:17:59.210
19,-14,-7,-7,-7,7,-48,-39,2025-02-24 12:17:59.222
-78,-27,-13,0,-16,-33,-76,-31,2025-02-24 12:17:59.232
29,8,9,1,-4,1,49,-2,2025-02-24 12:17:59.244
40,9,1,-2,-14,7,56,3,2025-02-24 12:17:59.255
-28,-2,-11,-3,-6,-1,-40,2,2025-02-24 12:17:59.266
-53,-23,-8,-1,-12,-3,-63,-62,2025-02-24 12:17:59.277
-64,-7,-7,0,-7,-10,-7,3,2025-02-24 12:17:59.289
-64,-7,-7,0,-7,-10,-7,3,2025-02-24 12:17:59.300
40,31,12,2,-7,-7,-8,3,2025-02-24 12:17:59.311
40,31,12,2,-7,-7,-8,3,2025-02-24 12:17:59.322
63,17,-5,1,-7,-6,36,17,2025-02-24 12:17:59.333
-16,-8,-5,-5,-12,-2,-4,-26,2025-02-24 12:17:59.344
50,-19,-7,-1,-7,-8,-57,15,2025-02-24 12:17:59.355
-37,-5,18,-2,-8,1,-2,16,2025-02-24 12:17:59.367
-37,-5,18,-2,-8,1,-2,16,2025-02-24 12:17:59.378
15,-3,12,-3,-11,-2,0,10,2025-02-24 12:17:59.389
23,-7,-8,0,-4,-1,-9,1,2025-02-24 12:17:59.400
-23,-2,-3,-3,-3,9,-14,0,2025-02-24 12:17:59.411
-23,-2,-3,-3,-3,9,-14,0,2025-02-24 12:17:59.423
27,-16,-6,0,-4,3,8,1,2025-02-24 12:17:59.434
27,-16,-6,0,-4,3,8,1,2025-02-24 12:17:59.445
13,-1,0,-7,-8,2,66,19,2025-02-24 12:17:59.456
-38,-2,-3,0,-8,-7,-68,4,2025-02-24 12:17:59.468
18,-8,-9,-2,-17,-23,-24,-2,2025-02-24 12:17:59.479
-54,-8,-13,-3,0,11,61,29,2025-02-24 12:17:59.490
-54,-8,-13,-3,0,11,61,29,2025-02-24 12:17:59.500
12,-9,14,3,-6,-3,-1,5,2025-02-24 12:17:59.511
51,36,13,1,-1,10,27,-11,2025-02-24 12:17:59.523
-112,-5,10,3,-1,2,-69,-18,2025-02-24 12:17:59.534
10,11,0,1,2,14,23,-5,2025-02-24 12:17:59.545
10,11,0,1,2,14,23,-5,2025-02-24 12:17:59.556
-47,-13,-1,-5,-9,-8,-26,-17,2025-02-24 12:17:59.567
59,12,5,4,-4,2,9,20,2025-02-24 12:17:59.579
49,10,7,-2,-8,-4,-79,6,2025-02-24 12:17:59.590
49,10,7,-2,-8,-4,-79,6,2025-02-24 12:17:59.601
-27,-15,-4,-8,-7,1,-16,-20,2025-02-24 12:17:59.612
-27,-15,-4,-8,-7,1,-16,-20,2025-02-24 12:17:59.623
37,-24,3,2,-11,-6,-8,-42,2025-02-24 12:17:59.634
-30,-15,-3,-2,-7,2,-3,-1,2025-02-24 12:17:59.646
38,14,-8,1,-4,1,44,3,2025-02-24 12:17:59.657
-9,-20,15,1,-7,-2,7,21,2025-02-24 12:17:59.668
-9,-20,15,1,-7,-2,7,21,2025-02-24 12:17:59.679
-64,-21,4,6,-5,-2,-24,-8,2025-02-24 12:17:59.691
21,31,8,-2,-6,1,36,28,2025-02-24 12:17:59.702
-12,-32,5,-9,-7,-5,-7,-33,2025-02-24 12:17:59.713
28,-12,0,1,-9,-9,28,-6,2025-02-24 12:17:59.724
28,-12,0,1,-9,-9,28,-6,2025-02-24 12:17:59.735
-66,19,-5,-3,-5,1,23,-15,2025-02-24 12:17:59.747
9,12,2,-5,-4,4,16,6,2025-02-24 12:17:59.758
113,10,10,1,-8,-3,-18,25,2025-02-24 12:17:59.769
57,5,5,3,-2,3,8,54,2025-02-24 12:17:59.780
1,30,6,5,1,8,11,-1,2025-02-24 12:17:59.791
1,30,6,5,1,8,11,-1,2025-02-24 12:17:59.802
6,2,-22,-7,-6,2,1,-34,2025-02-24 12:17:59.814
6,2,-22,-7,-6,2,1,-34,2025-02-24 12:17:59.825
-18,-9,-16,-6,-7,-1,-9,-8,2025-02-24 12:17:59.836
42,-1,7,1,-11,-4,38,33,2025-02-24 12:17:59.847
-19,-5,-11,-5,-13,-8,27,-10,2025-02-24 12:17:59.859
11,-3,-14,-3,-9,-7,-104,-10,2025-02-24 12:17:59.870
11,-3,-14,-3,-9,-7,-104,-10,2025-02-24 12:17:59.880
-47,-21,0,1,1,4,11,-47,2025-02-24 12:17:59.892
-5,0,-15,-3,-4,1,70,-23,2025-02-24 12:17:59.902
-57,-3,7,3,-14,-8,15,-4,2025-02-24 12:17:59.914
-22,9,-1,-2,-3,-1,-17,-15,2025-02-24 12:17:59.925
44,17,7,-1,-7,-1,-11,1,2025-02-24 12:17:59.937
70,20,14,-2,-4,-2,-17,13,2025-02-24 12:17:59.948
70,20,14,-2,-4,-2,-17,13,2025-02-24 12:17:59.959
34,-12,2,0,-6,-3,59,2,2025-02-24 12:17:59.970
34,-12,2,0,-6,-3,59,2,2025-02-24 12:17:59.981
-67,-5,-4,0,-9,-4,-8,-23,2025-02-24 12:17:59.992
-67,-5,-4,0,-9,-4,-8,-23,2025-02-24 12:18:00.004
22,14,-17,-1,-5,2,8,23,2025-02-24 12:18:00.015
19,-12,6,-2,-12,-7,8,-13,2025-02-24 12:18:00.026
-17,-22,-14,-3,-7,-1,10,14,2025-02-24 12:18:00.037
-16,-26,-16,0,-4,3,-4,2,2025-02-24 12:18:00.049
-16,-26,-16,0,-4,3,-4,2,2025-02-24 12:18:00.060
11,-11,-16,-7,-7,3,16,3,2025-02-24 12:18:00.070
-1,-6,14,4,-5,1,19,5,2025-02-24 12:18:00.081
-64,-45,5,-1,-11,-11,30,-8,2025-02-24 12:18:00.093
2,1,-11,-6,-2,6,81,-1,2025-02-24 12:18:00.104
2,1,-11,-6,-2,6,81,-1,2025-02-24 12:18:00.115
2,1,-11,-6,-2,6,81,-1,2025-02-24 12:18:00.126
-10,9,17,3,-4,-3,-13,24,2025-02-24 12:18:00.137
-10,9,17,3,-4,-3,-13,24,2025-02-24 12:18:00.148
5,11,13,2,-3,5,-53,7,2025-02-24 12:18:00.159
5,11,13,2,-3,5,-53,7,2025-02-24 12:18:00.171
-22,-2,5,1,1,6,-35,-12,2025-02-24 12:18:00.182
19,9,2,3,-9,2,-6,-4,2025-02-24 12:18:00.193
19,9,2,3,-9,2,-6,-4,2025-02-24 12:18:00.205
8,-1,-6,-1,-1,1,41,-2,2025-02-24 12:18:00.215
-19,-17,-13,-3,-10,-3,-24,-11,2025-02-24 12:18:00.227
-19,-17,-13,-3,-10,-3,-24,-11,2025-02-24 12:18:00.239
-45,11,-19,-17,-7,-2,3,10,2025-02-24 12:18:00.249
-45,11,-19,-17,-7,-2,3,10,2025-02-24 12:18:00.260
-2,34,2,8,-8,-5,51,3,2025-02-24 12:18:00.271
-2,34,2,8,-8,-5,51,3,2025-02-24 12:18:00.282
-10,12,11,2,-8,-5,24,0,2025-02-24 12:18:00.293
-10,12,11,2,-8,-5,24,0,2025-02-24 12:18:00.305
-20,-17,-2,-8,-5,4,-10,1,2025-02-24 12:18:00.316
-67,-57,-61,-2,-7,-19,-89,-19,2025-02-24 12:18:00.327
26,-75,1,-1,-7,-2,-35,-5,2025-02-24 12:18:00.339
24,2,-9,2,2,2,-18,-10,2025-02-24 12:18:00.350
24,2,-9,2,2,2,-18,-10,2025-02-24 12:18:00.361
48,24,4,1,-7,-2,-25,-5,2025-02-24 12:18:00.373
8,6,18,0,-7,1,8,12,2025-02-24 12:18:00.384
0,-1,-30,-9,-7,-1,19,-17,2025-02-24 12:18:00.395
-13,8,-14,2,-7,-3,-16,-1,2025-02-24 12:18:00.406
-13,8,-14,2,-7,-3,-16,-1,2025-02-24 12:18:00.417
-26,-25,-20,-1,-4,1,18,-27,2025-02-24 12:18:00.429
-26,-25,-20,-1,-4,1,18,-27,2025-02-24 12:18:00.440
-1,42,28,5,-3,6,-21,3,2025-02-24 12:18:00.450
-1,42,28,5,-3,6,-21,3,2025-02-24 12:18:00.461
7,-22,7,1,-9,-3,-21,-38,2025-02-24 12:18:00.473
7,-22,7,1,-9,-3,-21,-38,2025-02-24 12:18:00.484
-22,5,6,4,-4,1,19,12,2025-02-24 12:18:00.495
9,19,-8,-4,-2,3,4,4,2025-02-24 12:18:00.506
18,9,0,2,-7,-4,-30,-6,2025-02-24 12:18:00.517
39,-7,-27,-6,0,-4,-53,7,2025-02-24 12:18:00.529
39,-7,-27,-6,0,-4,-53,7,2025-02-24 12:18:00.539
-41,-40,4,3,-9,1,30,3,2025-02-24 12:18:00.551
51,19,7,-9,-5,0,8,6,2025-02-24 12:18:00.562
-18,4,26,11,-6,0,8,5,2025-02-24 12:18:00.573
-18,4,26,11,-6,0,8,5,2025-02-24 12:18:00.584
-16,8,-2,-7,-12,-3,5,-40,2025-02-24 12:18:00.595
-16,8,-2,-7,-12,-3,5,-40,2025-02-24 12:18:00.607
21,-37,0,-11,-3,1,-4,18,2025-02-24 12:18:00.618
21,-37,0,-11,-3,1,-4,18,2025-02-24 12:18:00.629
-39,-16,6,-5,-6,-1,9,-16,2025-02-24 12:18:00.640
-5,-10,-20,-13,-10,-6,6,11,2025-02-24 12:18:00.651
-5,-10,-20,-13,-10,-6,6,11,2025-02-24 12:18:00.662
24,19,15,10,-6,0,9,9,2025-02-24 12:18:00.674
24,19,15,10,-6,0,9,9,2025-02-24 12:18:00.684
10,57,18,9,-6,-2,3,29,2025-02-24 12:18:00.697
-20,-2,0,-2,-5,2,2,16,2025-02-24 12:18:00.707
-20,-2,0,-2,-5,2,2,16,2025-02-24 12:18:00.718
25,64,-23,-7,-9,-4,-12,-4,2025-02-24 12:18:00.729
25,64,-23,-7,-9,-4,-12,-4,2025-02-24 12:18:00.741
37,-22,7,-2,-7,2,14,37,2025-02-24 12:18:00.752
37,-22,7,-2,-7,2,14,37,2025-02-24 12:18:00.763
21,-37,-2,-1,-5,2,19,17,2025-02-24 12:18:00.775
21,-37,-2,-1,-5,2,19,17,2025-02-24 12:18:00.786
-11,15,6,-9,-6,-1,14,-18,2025-02-24 12:18:00.797
-11,15,6,-9,-6,-1,14,-18,2025-02-24 12:18:00.808
-15,-1,-16,4,-10,-8,-44,-13,2025-02-24 12:18:00.819
0,0,3,-1,-4,3,20,-4,2025-02-24 12:18:00.829
0,0,3,-1,-4,3,20,-4,2025-02-24 12:18:00.841
7,-6,7,1,-10,-6,-42,-2,2025-02-24 12:18:00.852
7,-6,7,1,-10,-6,-42,-2,2025-02-24 12:18:00.864
-17,-25,-4,-7,0,0,-14,12,2025-02-24 12:18:00.875
-10,-2,-6,-4,-2,1,17,7,2025-02-24 12:18:00.886
-10,-2,-6,-4,-2,1,17,7,2025-02-24 12:18:00.897
7,30,2,0,-2,2,9,-7,2025-02-24 12:18:00.908
5,-39,-1,2,-9,-6,30,-45,2025-02-24 12:18:00.919
-37,3,-1,2,-1,-1,-7,-17,2025-02-24 12:18:00.931
8,-10,4,-1,-4,4,-12,-1,2025-02-24 12:18:00.942
9,-31,-1,-5,-5,1,-5,7,2025-02-24 12:18:00.952
9,-31,-1,-5,-5,1,-5,7,2025-02-24 12:18:00.964
13,32,9,2,-7,-1,-3,13,2025-02-24 12:18:00.975
13,32,9,2,-7,-1,-3,13,2025-02-24 12:18:00.986
7,6,-58,-6,-3,0,7,-3,2025-02-24 12:18:00.997
-33,-15,7,3,-11,-1,-9,-11,2025-02-24 12:18:01.009
-33,-15,7,3,-11,-1,-9,-11,2025-02-24 12:18:01.020
-33,-15,7,3,-11,-1,-9,-11,2025-02-24 12:18:01.031
-9,15,-15,0,-7,0,40,-30,2025-02-24 12:18:01.042
0,-1,7,-2,-5,1,0,10,2025-02-24 12:18:01.053
-16,-5,-12,-5,-9,-7,-13,18,2025-02-24 12:18:01.065
8,15,3,2,-2,0,-13,13,2025-02-24 12:18:01.076
1,-8,11,2,-5,2,-8,25,2025-02-24 12:18:01.087
-33,1,-4,1,-11,-7,26,-9,2025-02-24 12:18:01.098
-33,1,-4,1,-11,-7,26,-9,2025-02-24 12:18:01.109
4,33,19,2,-8,-3,-10,-4,2025-02-24 12:18:01.120
4,33,19,2,-8,-3,-10,-4,2025-02-24 12:18:01.131
-8,-12,5,-1,-6,-2,-8,13,2025-02-24 12:18:01.143
-58,4,9,-6,-8,-3,11,2,2025-02-24 12:18:01.154
-58,4,9,-6,-8,-3,11,2,2025-02-24 12:18:01.165
-19,-83,-10,-2,-4,4,-19,-14,2025-02-24 12:18:01.177
8,18,-1,1,-4,0,-2,-3,2025-02-24 12:18:01.188
8,18,-1,1,-4,0,-2,-3,2025-02-24 12:18:01.199
5,10,-2,-1,-2,2,-7,-1,2025-02-24 12:18:01.210
5,10,-2,-1,-2,2,-7,-1,2025-02-24 12:18:01.221
24,15,13,-8,-11,-8,-33,-20,2025-02-24 12:18:01.232
24,15,13,-8,-11,-8,-33,-20,2025-02-24 12:18:01.243
-16,27,-3,-1,-6,3,14,-19,2025-02-24 12:18:01.255
-16,27,-3,-1,-6,3,14,-19,2025-02-24 12:18:01.266
12,-34,1,2,-8,-3,-4,2,2025-02-24 12:18:01.277
12,-34,1,2,-8,-3,-4,2,2025-02-24 12:18:01.288
-3,19,15,2,-12,-7,-30,-51,2025-02-24 12:18:01.299
-8,-13,-33,-4,4,5,9,-2,2025-02-24 12:18:01.310
-43,-7,-11,-1,-5,1,4,8,2025-02-24 12:18:01.322
36,-22,-2,5,-6,-5,17,27,2025-02-24 12:18:01.333
36,-22,-2,5,-6,-5,17,27,2025-02-24 12:18:01.344
48,37,16,3,-7,4,1,38,2025-02-24 12:18:01.355
22,-32,17,-11,-6,-1,-2,11,2025-02-24 12:18:01.366
3,16,-7,-1,-5,0,9,27,2025-02-24 12:18:01.377
13,3,-4,-3,-6,2,1,12,2025-02-24 12:18:01.389
13,3,-4,-3,-6,2,1,12,2025-02-24 12:18:01.400
15,11,14,-1,-5,-1,-7,9,2025-02-24 12:18:01.411
10,-4,-15,1,-1,1,17,-6,2025-02-24 12:18:01.422
-24,-3,-1,-2,-4,5,-10,-43,2025-02-24 12:18:01.433
-24,-3,-1,-2,-4,5,-10,-43,2025-02-24 12:18:01.444
-10,-13,12,4,-3,1,-5,-3,2025-02-24 12:18:01.456
-10,-13,12,4,-3,1,-5,-3,2025-02-24 12:18:01.467
8,7,1,-1,-8,-1,-8,0,2025-02-24 12:18:01.478
-32,2,-10,-5,-4,-1,-10,-10,2025-02-24 12:18:01.489
-6,5,0,-10,-4,-2,0,2,2025-02-24 12:18:01.500
-31,-17,-14,-5,-12,-5,28,6,2025-02-24 12:18:01.512
-31,-17,-14,-5,-12,-5,28,6,2025-02-24 12:18:01.523
9,7,-9,0,-6,-1,14,2,2025-02-24 12:18:01.534
9,7,-9,0,-6,-1,14,2,2025-02-24 12:18:01.545
-26,4,-14,2,2,1,-9,-36,2025-02-24 12:18:01.556
-8,6,9,5,-6,3,14,-4,2025-02-24 12:18:01.567
-24,-23,1,-2,-11,-6,20,5,2025-02-24 12:18:01.578
-24,-23,1,-2,-11,-6,20,5,2025-02-24 12:18:01.590
21,-9,-2,-1,-6,-2,-26,28,2025-02-24 12:18:01.601
21,-9,-2,-1,-6,-2,-26,28,2025-02-24 12:18:01.612
28,-35,-2,-4,-8,0,-15,8,2025-02-24 12:18:01.623
9,16,-5,0,-9,-10,-8,0,2025-02-24 12:18:01.634
9,16,-5,0,-9,-10,-8,0,2025-02-24 12:18:01.645
-10,20,-15,-5,-8,2,4,-36,2025-02-24 12:18:01.656
-10,20,-15,-5,-8,2,4,-36,2025-02-24 12:18:01.667
27,0,15,3,-6,-2,-6,16,2025-02-24 12:18:01.679
-8,12,2,2,-7,-1,-7,-1,2025-02-24 12:18:01.690
-8,12,2,2,-7,-1,-7,-1,2025-02-24 12:18:01.701
-27,4,1,-2,-6,2,4,3,2025-02-24 12:18:01.712
-27,4,1,-2,-6,2,4,3,2025-02-24 12:18:01.723
-63,7,-5,2,-3,-1,-10,-19,2025-02-24 12:18:01.734
-63,7,-5,2,-3,-1,-10,-19,2025-02-24 12:18:01.746
2,10,2,-5,-2,1,-17,15,2025-02-24 12:18:01.757
2,10,2,-5,-2,1,-17,15,2025-02-24 12:18:01.769
4,-7,-27,-10,-10,-5,15,-10,2025-02-24 12:18:01.780
4,-7,-27,-10,-10,-5,15,-10,2025-02-24 12:18:01.791
9,-8,8,4,-6,2,-7,6,2025-02-24 12:18:01.801
25,-1,0,-1,-5,0,0,5,2025-02-24 12:18:01.813
25,-1,0,-1,-5,0,0,5,2025-02-24 12:18:01.824
-23,-2,18,-8,-4,-1,2,-21,2025-02-24 12:18:01.835
-23,-2,18,-8,-4,-1,2,-21,2025-02-24 12:18:01.847
-11,-5,-10,2,-7,-6,-11,17,2025-02-24 12:18:01.858
26,-45,5,2,-1,4,0,4,2025-02-24 12:18:01.869
26,-45,5,2,-1,4,0,4,2025-02-24 12:18:01.880
6,22,-12,3,-11,-7,27,11,2025-02-24 12:18:01.891
6,22,-12,3,-11,-7,27,11,2025-02-24 12:18:01.903
21,-9,5,-4,-8,-2,-7,-11,2025-02-24 12:18:01.914
21,-9,5,-4,-8,-2,-7,-11,2025-02-24 12:18:01.925
21,-9,5,-4,-8,-2,-7,-11,2025-02-24 12:18:01.936
-1,5,-11,-3,-7,0,-12,-67,2025-02-24 12:18:01.947
-1,5,-11,-3,-7,0,-12,-67,2025-02-24 12:18:01.958
3,-61,-9,-8,-6,-1,-27,-3,2025-02-24 12:18:01.969
-33,30,-1,2,-6,-1,10,5,2025-02-24 12:18:01.980
31,7,1,-1,-6,-1,10,20,2025-02-24 12:18:01.992
31,7,1,-1,-6,-1,10,20,2025-02-24 12:18:02.003
-21,4,6,2,-8,-2,10,6,2025-02-24 12:18:02.014
-21,4,6,2,-8,-2,10,6,2025-02-24 12:18:02.025
27,-17,13,1,-6,0,13,7,2025-02-24 12:18:02.036
1,6,14,8,-1,-1,0,7,2025-02-24 12:18:02.047
-24,-7,-21,-6,-7,-2,19,20,2025-02-24 12:18:02.058
-24,-7,-21,-6,-7,-2,19,20,2025-02-24 12:18:02.070
8,3,14,-1,-6,1,0,14,2025-02-24 12:18:02.081
8,3,14,-1,-6,1,0,14,2025-02-24 12:18:02.092
8,3,14,-1,-6,1,0,14,2025-02-24 12:18:02.103
8,3,14,-1,-6,1,0,14,2025-02-24 12:18:02.114
32,14,-8,-3,-2,1,2,7,2025-02-24 12:18:02.126
-16,7,0,-3,-9,-5,10,-6,2025-02-24 12:18:02.137
-16,7,0,-3,-9,-5,10,-6,2025-02-24 12:18:02.148
-22,-15,-6,2,-3,-1,0,-19,2025-02-24 12:18:02.160
-8,-19,-3,4,-3,0,-12,-3,2025-02-24 12:18:02.171
-6,-3,-4,-2,-6,3,-14,-3,2025-02-24 12:18:02.181
27,-2,8,4,-4,-1,3,8,2025-02-24 12:18:02.192
9,-13,6,2,-4,-1,2,-31,2025-02-24 12:18:02.204
30,-2,-23,-3,-9,-6,-7,14,2025-02-24 12:18:02.215
-4,6,-2,0,-4,0,3,1,2025-02-24 12:18:02.226
16,6,6,4,-10,-2,-10,2,2025-02-24 12:18:02.238
16,6,6,4,-10,-2,-10,2,2025-02-24 12:18:02.249
10,1,-53,-2,-1,-4,22,11,2025-02-24 12:18:02.260
10,1,-53,-2,-1,-4,22,11,2025-02-24 12:18:02.271
5,11,11,-2,-8,1,-2,5,2025-02-24 12:18:02.282
15,-12,-16,-2,-4,-2,2,5,2025-02-24 12:18:02.293
-13,-3,21,-1,-7,-1,-16,-37,2025-02-24 12:18:02.305
-19,-2,0,-4,-6,-2,6,-6,2025-02-24 12:18:02.316
-28,2,15,6,-7,-1,15,5,2025-02-24 12:18:02.327
15,4,-1,-1,-9,-4,-1,-11,2025-02-24 12:18:02.339
2,-5,3,0,-7,-1,-4,0,2025-02-24 12:18:02.349
-17,-31,-3,-6,-5,0,-10,-3,2025-02-24 12:18:02.361
-36,-30,-11,-8,-7,-1,1,15,2025-02-24 12:18:02.372
-36,-30,-11,-8,-7,-1,1,15,2025-02-24 12:18:02.383
-6,-13,-9,-3,-8,-1,-1,6,2025-02-24 12:18:02.394
3,-22,-11,0,-6,1,3,8,2025-02-24 12:18:02.405
6,22,5,3,-4,1,-4,5,2025-02-24 12:18:02.416
6,22,5,3,-4,1,-4,5,2025-02-24 12:18:02.428
19,10,11,1,-6,-4,-6,4,2025-02-24 12:18:02.439
19,10,11,1,-6,-4,-6,4,2025-02-24 12:18:02.450
2,-2,-5,-2,-7,1,-2,-7,2025-02-24 12:18:02.461
0,1,1,2,-6,0,-5,3,2025-02-24 12:18:02.473
2,-1,1,-3,-9,-4,1,8,2025-02-24 12:18:02.483
2,-1,1,-3,-9,-4,1,8,2025-02-24 12:18:02.495
-5,3,9,1,-5,-1,-8,-3,2025-02-24 12:18:02.506
3,-15,-2,-1,-9,-3,-21,4,2025-02-24 12:18:02.517
14,20,10,3,-5,-1,-4,-2,2025-02-24 12:18:02.528
-1,8,3,2,-10,-3,1,-9,2025-02-24 12:18:02.540
7,-12,6,-4,-7,1,-13,14,2025-02-24 12:18:02.551
-17,-14,-6,0,-6,-3,-2,-6,2025-02-24 12:18:02.562
3,1,3,1,-6,2,-4,-3,2025-02-24 12:18:02.573
-12,9,-13,-6,-5,1,-10,-4,2025-02-24 12:18:02.584
-12,9,-13,-6,-5,1,-10,-4,2025-02-24 12:18:02.594
-19,-8,-22,-4,-7,0,-2,11,2025-02-24 12:18:02.606
17,5,12,4,-5,-1,16,-2,2025-02-24 12:18:02.617
17,5,12,4,-5,-1,16,-2,2025-02-24 12:18:02.628
42,10,-19,1,-5,-4,7,10,2025-02-24 12:18:02.639
42,10,-19,1,-5,-4,7,10,2025-02-24 12:18:02.650
1,-4,17,-2,-7,-3,-3,8,2025-02-24 12:18:02.662
0,-9,12,1,-7,0,-3,13,2025-02-24 12:18:02.673
43,-15,-11,-7,-6,0,4,8,2025-02-24 12:18:02.684
-9,-8,-20,-9,-4,-3,-11,-14,2025-02-24 12:18:02.695
-9,-8,-20,-9,-4,-3,-11,-14,2025-02-24 12:18:02.707
-37,1,14,2,-9,-3,-3,-5,2025-02-24 12:18:02.718
-37,1,14,2,-9,-3,-3,-5,2025-02-24 12:18:02.729
-42,-12,-4,-3,-7,1,-9,-1,2025-02-24 12:18:02.740
-42,-12,-4,-3,-7,1,-9,-1,2025-02-24 12:18:02.751
22,0,12,1,-6,1,-5,-12,2025-02-24 12:18:02.762
22,0,12,1,-6,1,-5,-12,2025-02-24 12:18:02.774
17,-3,9,11,1,-1,-10,4,2025-02-24 12:18:02.785
-15,-16,-7,-2,-5,3,-4,-7,2025-02-24 12:18:02.796
11,4,0,-1,-6,1,22,5,2025-02-24 12:18:02.807
28,-6,0,0,-7,-2,-7,8,2025-02-24 12:18:02.818
28,-6,0,0,-7,-2,-7,8,2025-02-24 12:18:02.830
1,2,12,-4,-6,-1,0,-5,2025-02-24 12:18:02.841
-26,2,23,-3,-5,1,-3,-13,2025-02-24 12:18:02.852
5,10,-4,-2,-7,2,-9,1,2025-02-24 12:18:02.863
-20,-12,10,-6,-5,0,17,-1,2025-02-24 12:18:02.874
-20,-12,10,-6,-5,0,17,-1,2025-02-24 12:18:02.886
-46,-6,-28,0,-10,-5,-1,-15,2025-02-24 12:18:02.897
12,-5,-5,0,-4,1,-10,-10,2025-02-24 12:18:02.908
-12,4,-7,-2,-7,-6,-3,-3,2025-02-24 12:18:02.919
-12,4,-7,-2,-7,-6,-3,-3,2025-02-24 12:18:02.931
5,-7,-7,-7,-7,-3,-7,2,2025-02-24 12:18:02.942
5,-7,-7,-7,-7,-3,-7,2,2025-02-24 12:18:02.953
-13,6,-8,-4,-6,0,-9,-7,2025-02-24 12:18:02.963
40,3,5,1,-8,-6,-40,21,2025-02-24 12:18:02.974
-26,2,6,2,-7,1,-6,1,2025-02-24 12:18:02.985
24,7,-17,-7,-7,0,7,-9,2025-02-24 12:18:02.997
-58,12,-18,-3,-2,-2,11,-28,2025-02-24 12:18:03.008
-58,12,-18,-3,-2,-2,11,-28,2025-02-24 12:18:03.019
-8,-4,-5,3,-9,-5,-25,-13,2025-02-24 12:18:03.031
-5,-13,9,-1,-6,1,-1,-11,2025-02-24 12:18:03.041
-5,-13,9,-1,-6,1,-1,-11,2025-02-24 12:18:03.053
12,8,15,1,-4,0,-7,-4,2025-02-24 12:18:03.064
12,8,15,1,-4,0,-7,-4,2025-02-24 12:18:03.075
12,8,15,1,-4,0,-7,-4,2025-02-24 12:18:03.086
12,8,15,1,-4,0,-7,-4,2025-02-24 12:18:03.097
24,-2,-3,0,-9,-5,21,8,2025-02-24 12:18:03.109
53,-6,-24,-2,-3,3,-11,28,2025-02-24 12:18:03.120
53,-6,-24,-2,-3,3,-11,28,2025-02-24 12:18:03.131
53,-6,-24,-2,-3,3,-11,28,2025-02-24 12:18:03.142
2,-10,8,0,-2,1,-7,-4,2025-02-24 12:18:03.153
-13,5,-5,-2,-5,4,21,1,2025-02-24 12:18:03.164
-5,-11,3,1,-9,-4,-16,2,2025-02-24 12:18:03.175
-13,-1,4,0,-7,-5,-9,-19,2025-02-24 12:18:03.187
1,11,14,2,-3,2,-6,-16,2025-02-24 12:18:03.198
12,-17,0,2,-6,-4,-19,17,2025-02-24 12:18:03.209
12,-17,0,2,-6,-4,-19,17,2025-02-24 12:18:03.220
12,-17,0,2,-6,-4,-19,17,2025-02-24 12:18:03.231
-21,21,17,6,-8,1,-13,-10,2025-02-24 12:18:03.242
-21,21,17,6,-8,1,-13,-10,2025-02-24 12:18:03.254
0,9,-1,-4,-10,-7,-23,-8,2025-02-24 12:18:03.266
-22,-6,4,0,-8,2,10,2,2025-02-24 12:18:03.277
-2,20,-25,-3,-4,2,-4,8,2025-02-24 12:18:03.288
6,-5,-7,-2,-8,0,2,7,2025-02-24 12:18:03.299
6,-5,-7,-2,-8,0,2,7,2025-02-24 12:18:03.310
11,0,2,2,0,6,13,-30,2025-02-24 12:18:03.321
-13,5,-30,-4,-3,-1,-6,-13,2025-02-24 12:18:03.332
-9,-24,6,0,-7,-1,17,6,2025-02-24 12:18:03.343
-15,18,2,-5,-3,1,11,-8,2025-02-24 12:18:03.355
-15,18,2,-5,-3,1,11,-8,2025-02-24 12:18:03.366
-43,-14,15,-9,-6,-3,-26,-17,2025-02-24 12:18:03.377
-43,-14,15,-9,-6,-3,-26,-17,2025-02-24 12:18:03.388
32,-2,4,5,-4,1,13,14,2025-02-24 12:18:03.399
32,-2,4,5,-4,1,13,14,2025-02-24 12:18:03.411
-4,-8,3,0,-2,1,8,1,2025-02-24 12:18:03.422
-4,-8,3,0,-2,1,8,1,2025-02-24 12:18:03.433
-12,-6,4,-2,-7,-6,-13,-24,2025-02-24 12:18:03.444
-12,-6,4,-2,-7,-6,-13,-24,2025-02-24 12:18:03.455
-34,1,-8,1,-5,-1,1,-43,2025-02-24 12:18:03.466
-15,2,-21,-10,-10,-5,-10,-7,2025-02-24 12:18:03.477
-30,-6,5,-1,-9,-2,2,10,2025-02-24 12:18:03.489
-5,-9,2,-5,-8,0,-1,9,2025-02-24 12:18:03.499
-5,-9,2,-5,-8,0,-1,9,2025-02-24 12:18:03.511
1,2,13,0,-7,0,-17,-8,2025-02-24 12:18:03.522
20,13,11,3,-4,2,-10,3,2025-02-24 12:18:03.533
3,-5,-7,1,-7,-2,-9,-5,2025-02-24 12:18:03.544
-2,2,-5,-3,-6,-4,-9,3,2025-02-24 12:18:03.556
-41,-24,-19,-8,-7,-4,-32,-21,2025-02-24 12:18:03.567
-3,-1,9,1,-4,4,-21,-25,2025-02-24 12:18:03.578
14,-7,5,4,-8,2,16,9,2025-02-24 12:18:03.589
13,-1,-11,1,-1,1,12,4,2025-02-24 12:18:03.600
13,-1,-11,1,-1,1,12,4,2025-02-24 12:18:03.611
38,2,-10,-6,-6,0,-23,28,2025-02-24 12:18:03.623
38,2,-10,-6,-6,0,-23,28,2025-02-24 12:18:03.634
-17,-13,-12,-1,-6,1,12,14,2025-02-24 12:18:03.645
-4,-1,-2,4,-11,-6,4,-17,2025-02-24 12:18:03.656
-14,-28,8,-2,-8,1,31,-11,2025-02-24 12:18:03.667
1,13,-4,-2,-9,-9,-5,-28,2025-02-24 12:18:03.678
1,13,-4,-2,-9,-9,-5,-28,2025-02-24 12:18:03.689
12,5,-4,-3,-7,-1,-2,5,2025-02-24 12:18:03.700
12,5,-4,-3,-7,-1,-2,5,2025-02-24 12:18:03.712
-43,2,6,-3,-4,-2,-27,-16,2025-02-24 12:18:03.723
-43,2,6,-3,-4,-2,-27,-16,2025-02-24 12:18:03.734
53,3,20,7,-3,1,7,33,2025-02-24 12:18:03.745
53,3,20,7,-3,1,7,33,2025-02-24 12:18:03.757
11,-22,-9,-2,-6,-2,-2,-6,2025-02-24 12:18:03.768
5,-5,-11,-15,-8,2,27,16,2025-02-24 12:18:03.779
-43,10,11,0,-8,-7,-31,-12,2025-02-24 12:18:03.791
14,15,2,5,-2,7,17,11,2025-02-24 12:18:03.801
14,15,2,5,-2,7,17,11,2025-02-24 12:18:03.813
2,2,-5,-2,-6,0,7,-15,2025-02-24 12:18:03.824
-2,-12,-15,-3,-8,-2,8,-9,2025-02-24 12:18:03.835
-7,1,3,0,-8,-1,4,0,2025-02-24 12:18:03.846
-4,3,5,1,-5,2,-4,3,2025-02-24 12:18:03.857
-8,-29,-5,-5,-5,-2,-1,-41,2025-02-24 12:18:03.868
14,16,2,-2,-5,1,1,14,2025-02-24 12:18:03.879
14,16,2,-2,-5,1,1,14,2025-02-24 12:18:03.890
-9,1,0,-4,-6,-1,3,6,2025-02-24 12:18:03.902
-9,1,0,-4,-6,-1,3,6,2025-02-24 12:18:03.913
-9,1,-5,-2,-6,-3,2,5,2025-02-24 12:18:03.924
-9,1,-5,-2,-6,-3,2,5,2025-02-24 12:18:03.935
5,1,-6,-1,-7,-2,-5,1,2025-02-24 12:18:03.946
2,-12,-5,-2,-5,-1,-1,-5,2025-02-24 12:18:03.958
11,12,-2,-2,-7,1,-5,3,2025-02-24 12:18:03.969
5,-2,-5,-1,-6,-2,-3,5,2025-02-24 12:18:03.980
5,-2,-5,-1,-6,-2,-3,5,2025-02-24 12:18:03.991
-4,0,-1,0,-5,0,3,-2,2025-02-24 12:18:04.003
-1,1,-4,-2,-5,0,1,3,2025-02-24 12:18:04.014
1,4,1,-1,-8,-1,5,0,2025-02-24 12:18:04.025
3,-7,-7,-3,-7,-2,0,-2,2025-02-24 12:18:04.036
-5,-5,-4,1,-5,-1,2,-3,2025-02-24 12:18:04.047
-5,-5,-4,1,-5,-1,2,-3,2025-02-24 12:18:04.058
-2,-7,-3,1,-6,0,0,2,2025-02-24 12:18:04.069
-2,-7,-3,1,-6,0,0,2,2025-02-24 12:18:04.080
-2,-7,-3,1,-6,0,0,2,2025-02-24 12:18:04.092
10,9,-1,0,-25,-1,-1,2,2025-02-24 12:18:04.103
10,9,-1,0,-25,-1,-1,2,2025-02-24 12:18:04.114
-2,4,-1,-2,-24,-3,-1,-1,2025-02-24 12:18:04.125
1,3,0,-2,-20,-2,-11,1,2025-02-24 12:18:04.136
3,3,-1,-2,-28,-3,-8,-1,2025-02-24 12:18:04.147
3,3,-1,-2,-28,-3,-8,-1,2025-02-24 12:18:04.158
-3,-3,-2,1,-25,-1,3,-4,2025-02-24 12:18:04.169
-3,0,-2,-3,-29,-2,0,-3,2025-02-24 12:18:04.181
-3,0,-2,-3,-29,-2,0,-3,2025-02-24 12:18:04.192
-3,0,-2,-3,-29,-2,0,-3,2025-02-24 12:18:04.203
1,-4,-1,-1,-33,0,2,-1,2025-02-24 12:18:04.214
0,3,0,0,-34,-1,-3,-1,2025-02-24 12:18:04.225
0,3,0,0,-34,-1,-3,-1,2025-02-24 12:18:04.236
0,3,0,0,-34,-1,-3,-1,2025-02-24 12:18:04.248
-1,1,-2,-1,-9,0,-1,-1,2025-02-24 12:18:04.260
-4,0,-1,-1,-10,-1,1,-2,2025-02-24 12:18:04.271
-4,-9,-2,-1,-8,0,-2,0,2025-02-24 12:18:04.282
-4,-9,-2,-1,-8,0,-2,0,2025-02-24 12:18:04.293
-1,6,-2,-2,-7,0,-1,-1,2025-02-24 12:18:04.304
-1,-5,2,0,-5,-1,-1,-2,2025-02-24 12:18:04.315
0,2,-3,-2,-9,-2,-2,-1,2025-02-24 12:18:04.326
1,0,-1,-1,-9,-2,-1,-2,2025-02-24 12:18:04.337
-4,7,-1,-3,-7,-2,-1,-3,2025-02-24 12:18:04.349
2,1,1,-1,-5,-1,1,-1,2025-02-24 12:18:04.360
2,1,1,-1,-5,-1,1,-1,2025-02-24 12:18:04.371
-1,-7,-2,-3,-6,-1,-2,-2,2025-02-24 12:18:04.382
-1,-7,-2,-3,-6,-1,-2,-2,2025-02-24 12:18:04.394
-1,-4,-2,-1,-6,0,0,-1,2025-02-24 12:18:04.405
-1,-4,-2,-1,-6,0,0,-1,2025-02-24 12:18:04.416
-3,-10,-3,-3,-9,0,-2,-2,2025-02-24 12:18:04.427
-3,-10,-3,-3,-9,0,-2,-2,2025-02-24 12:18:04.438
-1,0,-2,0,-5,-1,-1,0,2025-02-24 12:18:04.449
-2,0,-2,-1,-6,-1,-2,0,2025-02-24 12:18:04.460
2,1,1,-1,-7,-1,-1,0,2025-02-24 12:18:04.472
-1,-3,-2,0,-6,-1,-1,-1,2025-02-24 12:18:04.483
-3,-3,0,-1,-7,1,-2,-2,2025-02-24 12:18:04.494
-3,-3,0,-1,-7,1,-2,-2,2025-02-24 12:18:04.505
-2,0,-1,-2,-10,-3,0,-1,2025-02-24 12:18:04.516
0,3,-3,0,-5,-1,-1,0,2025-02-24 12:18:04.527
-2,-2,-2,-2,-5,-1,0,-1,2025-02-24 12:18:04.539
-3,-6,-3,-4,-4,-1,0,-2,2025-02-24 12:18:04.549
-1,3,0,0,-6,-1,-2,-2,2025-02-24 12:18:04.560
-4,-5,-5,-2,-5,0,0,-2,2025-02-24 12:18:04.572
2,2,2,2,-5,-1,0,0,2025-02-24 12:18:04.583
2,2,2,2,-5,-1,0,0,2025-02-24 12:18:04.594
-2,-2,-1,-3,-6,-1,-3,-1,2025-02-24 12:18:04.605
-2,-8,-4,-2,-7,-1,-2,-2,2025-02-24 12:18:04.616
2,2,0,-2,-4,-1,-1,-1,2025-02-24 12:18:04.628
-4,-5,-2,0,-7,-1,-1,-3,2025-02-24 12:18:04.639
2,0,-2,-1,-6,0,0,0,2025-02-24 12:18:04.650
0,-4,1,-3,-6,-2,-1,-1,2025-02-24 12:18:04.662
0,-4,1,-3,-6,-2,-1,-1,2025-02-24 12:18:04.673
0,-4,1,-3,-6,-2,-1,-1,2025-02-24 12:18:04.684
-2,0,-3,-1,-5,-1,-2,0,2025-02-24 12:18:04.695
-3,1,-1,-1,-8,-3,-1,-2,2025-02-24 12:18:04.705
-3,1,-1,-1,-8,-3,-1,-2,2025-02-24 12:18:04.717
0,0,0,0,-5,0,-2,0,2025-02-24 12:18:04.728
0,0,0,0,-5,0,-2,0,2025-02-24 12:18:04.739
-1,2,2,-1,-6,1,-2,1,2025-02-24 12:18:04.751
-1,1,-2,-1,-8,-2,1,-1,2025-02-24 12:18:04.762
-1,1,-1,-1,-8,-2,-1,-2,2025-02-24 12:18:04.773
2,4,-2,0,-6,0,0,1,2025-02-24 12:18:04.784
0,0,-1,-3,-6,-2,-1,1,2025-02-24 12:18:04.795
-5,-5,-6,-6,-7,-2,0,-2,2025-02-24 12:18:04.807
0,-1,-1,1,-7,0,-1,-2,2025-02-24 12:18:04.818
-2,0,-2,-1,-5,0,1,-3,2025-02-24 12:18:04.829
-1,1,-2,1,-4,0,0,1,2025-02-24 12:18:04.841
-1,0,1,0,-5,-3,0,-1,2025-02-24 12:18:04.851
-1,-3,-3,-1,-7,-2,-1,0,2025-02-24 12:18:04.862
-1,-3,-3,-1,-7,-2,-1,0,2025-02-24 12:18:04.874
-1,-1,1,-1,-6,-2,-2,0,2025-02-24 12:18:04.885
-2,-2,-4,0,-5,-2,0,-1,2025-02-24 12:18:04.896
-2,0,0,-1,-4,-1,-1,0,2025-02-24 12:18:04.908
-2,0,0,-1,-4,-1,-1,0,2025-02-24 12:18:04.919
0,1,-1,1,-7,-3,-1,-4,2025-02-24 12:18:04.929
0,3,2,-1,-6,1,-1,-2,2025-02-24 12:18:04.940
0,3,3,3,-4,0,-2,0,2025-02-24 12:18:04.951
1,-3,2,0,-5,0,-1,-1,2025-02-24 12:18:04.963
1,-3,2,0,-5,0,-1,-1,2025-02-24 12:18:04.974
-4,-2,-3,-3,-10,-1,-1,-2,2025-02-24 12:18:04.985
-2,-9,-1,0,-32,-1,-1,-2,2025-02-24 12:18:04.997
-2,-4,-1,-3,-22,-1,0,-1,2025-02-24 12:18:05.008
1,4,1,0,-10,-1,-1,-1,2025-02-24 12:18:05.019
-1,-4,-2,-2,-8,-1,0,-1,2025-02-24 12:18:05.030
0,2,4,1,-8,0,0,0,2025-02-24 12:18:05.041
-2,6,-3,-2,-8,0,0,-1,2025-02-24 12:18:05.053
1,4,-1,2,-11,-2,-2,-2,2025-02-24 12:18:05.064
1,4,-1,2,-11,-2,-2,-2,2025-02-24 12:18:05.075
-1,-3,-2,-2,-10,0,-2,1,2025-02-24 12:18:05.086
-1,-3,-2,-2,-10,0,-2,1,2025-02-24 12:18:05.097
0,-1,-1,-1,-7,-1,-2,0,2025-02-24 12:18:05.109
-4,-1,-2,-3,-7,-1,-1,-1,2025-02-24 12:18:05.119
-4,-6,2,1,-7,0,-3,-1,2025-02-24 12:18:05.130
-4,-6,2,1,-7,0,-3,-1,2025-02-24 12:18:05.141
-2,-2,-2,-2,-7,-1,-1,-1,2025-02-24 12:18:05.153
0,-1,0,-3,-8,-2,-2,1,2025-02-24 12:18:05.164
-7,-6,-3,-2,-6,0,0,-2,2025-02-24 12:18:05.175
1,0,-1,-1,-8,-2,-1,-2,2025-02-24 12:18:05.186
-3,-3,0,1,-5,2,-2,-5,2025-02-24 12:18:05.197
-3,-3,0,1,-5,2,-2,-5,2025-02-24 12:18:05.208
-6,0,-1,-3,-7,-3,0,3,2025-02-24 12:18:05.220
-3,3,-2,-3,-6,-1,0,0,2025-02-24 12:18:05.231
-3,3,-2,-3,-6,-1,0,0,2025-02-24 12:18:05.242
-1,-3,0,0,-6,-2,-3,-1,2025-02-24 12:18:05.253
-9,4,-2,-1,-7,-1,-2,-3,2025-02-24 12:18:05.264
-9,4,-2,-1,-7,-1,-2,-3,2025-02-24 12:18:05.275
-1,-2,-1,-2,-10,-2,-1,-2,2025-02-24 12:18:05.287
-1,-1,0,-1,-7,0,-3,0,2025-02-24 12:18:05.298
-2,-2,0,-1,-6,-2,0,0,2025-02-24 12:18:05.309
-8,-11,-6,-1,-8,-1,-1,-3,2025-02-24 12:18:05.321
1,-3,-5,0,-6,0,1,-1,2025-02-24 12:18:05.332
-2,-5,-5,-2,-7,0,-2,0,2025-02-24 12:18:05.343
-2,-5,-5,-2,-7,0,-2,0,2025-02-24 12:18:05.354
1,4,0,1,-6,-3,-1,-1,2025-02-24 12:18:05.365
1,4,0,1,-6,-3,-1,-1,2025-02-24 12:18:05.376
-3,-2,2,1,-7,-2,0,-3,2025-02-24 12:18:05.388
-3,-2,2,1,-7,-2,0,-3,2025-02-24 12:18:05.399
-3,-4,-6,-4,-5,0,-1,-3,2025-02-24 12:18:05.410
-3,-4,-6,-4,-5,0,-1,-3,2025-02-24 12:18:05.421
-8,-6,-5,-4,-8,-1,-2,-3,2025-02-24 12:18:05.432
2,-2,-2,-1,-5,-2,-1,0,2025-02-24 12:18:05.443
1,1,-2,0,-8,1,-3,0,2025-02-24 12:18:05.455
-1,-1,0,0,-8,-2,1,-2,2025-02-24 12:18:05.466
-1,-1,0,0,-8,-2,1,-2,2025-02-24 12:18:05.477
1,-2,-1,0,-7,-3,0,0,2025-02-24 12:18:05.488
1,0,0,-1,-8,-2,-1,-2,2025-02-24 12:18:05.499
1,0,0,-1,-8,-2,-1,-2,2025-02-24 12:18:05.511
0,1,-2,-3,-7,0,0,-1,2025-02-24 12:18:05.522
0,1,2,1,-7,-1,-4,-2,2025-02-24 12:18:05.533
-2,-3,0,-1,-8,-1,-1,-2,2025-02-24 12:18:05.543
0,0,-2,-1,-9,-2,-2,-2,2025-02-24 12:18:05.555
-5,-4,-2,-3,-7,-1,-2,-1,2025-02-24 12:18:05.566
-5,-4,-2,-3,-7,-1,-2,-1,2025-02-24 12:18:05.577
1,0,-2,-1,-6,0,-2,0,2025-02-24 12:18:05.588
1,0,-2,-1,-6,0,-2,0,2025-02-24 12:18:05.599
1,-1,-1,-1,-8,0,0,0,2025-02-24 12:18:05.611
-1,-2,-1,-1,-6,-1,-2,-3,2025-02-24 12:18:05.622
1,-2,1,1,-7,-2,0,0,2025-02-24 12:18:05.633
-1,1,-1,-3,-6,0,-1,-2,2025-02-24 12:18:05.644
-1,1,-1,-3,-6,0,-1,-2,2025-02-24 12:18:05.656
-1,-1,-1,-1,-7,-2,0,0,2025-02-24 12:18:05.666
-1,-2,-1,-1,-6,-3,-2,-1,2025-02-24 12:18:05.678
-1,0,0,-1,-7,-1,-1,-2,2025-02-24 12:18:05.689
-4,0,-2,0,-8,-1,0,-2,2025-02-24 12:18:05.700
-5,-5,-4,-1,-7,-2,-2,-1,2025-02-24 12:18:05.711
-5,-5,-4,-1,-7,-2,-2,-1,2025-02-24 12:18:05.723
0,0,2,-2,-8,-1,0,-2,2025-02-24 12:18:05.734
0,-1,-2,-1,-7,-2,-1,-1,2025-02-24 12:18:05.745
0,-1,-2,-1,-7,-2,-1,-1,2025-02-24 12:18:05.756
-1,0,2,-1,-5,0,-1,-1,2025-02-24 12:18:05.767
-1,0,-2,-1,-7,0,0,0,2025-02-24 12:18:05.778
-2,0,0,1,-5,-1,-2,0,2025-02-24 12:18:05.789
-2,0,0,1,-5,-1,-2,0,2025-02-24 12:18:05.800
0,-2,-2,-2,-7,-1,0,1,2025-02-24 12:18:05.812
-1,1,2,-1,-6,-1,-1,-2,2025-02-24 12:18:05.823
-1,1,2,-1,-6,-1,-1,-2,2025-02-24 12:18:05.834
1,-2,-2,-2,-4,-1,-1,-1,2025-02-24 12:18:05.845
-2,-1,0,-1,-6,-1,-1,-2,2025-02-24 12:18:05.857
-2,-1,0,-1,-6,-1,-1,-2,2025-02-24 12:18:05.868
-3,-1,-2,-1,-6,-1,-2,-1,2025-02-24 12:18:05.879
-3,-1,-2,-1,-6,-1,-2,-1,2025-02-24 12:18:05.890
1,-3,-2,-1,-5,0,-2,-2,2025-02-24 12:18:05.902
0,0,-2,-3,-5,-2,-1,-1,2025-02-24 12:18:05.913
0,0,-2,-3,-5,-2,-1,-1,2025-02-24 12:18:05.923
0,0,-2,-3,-5,-2,-1,-1,2025-02-24 12:18:05.934
0,0,-2,-3,-5,-2,-1,-1,2025-02-24 12:18:05.945
-3,0,1,-1,-6,-2,-1,0,2025-02-24 12:18:05.957
-2,-1,-4,-1,-7,0,1,-1,2025-02-24 12:18:05.968
0,0,-1,-1,-5,-1,-3,0,2025-02-24 12:18:05.980
0,0,-1,-1,-5,-1,-3,0,2025-02-24 12:18:05.991
0,0,-1,-1,-5,-1,-3,0,2025-02-24 12:18:06.002
0,0,-1,-1,-5,-1,-3,0,2025-02-24 12:18:06.013
-2,-1,-3,2,-5,0,0,2,2025-02-24 12:18:06.024
-1,-2,-1,0,-5,-1,-2,-1,2025-02-24 12:18:06.035
1,-3,0,-2,-6,0,0,0,2025-02-24 12:18:06.047
0,0,-2,0,-6,1,-1,0,2025-02-24 12:18:06.057
-3,-2,1,-2,-3,-2,-1,-2,2025-02-24 12:18:06.069
-3,-2,1,-2,-3,-2,-1,-2,2025-02-24 12:18:06.080
0,0,-1,-1,-7,-2,-1,0,2025-02-24 12:18:06.091
0,1,-4,-2,-5,-2,1,0,2025-02-24 12:18:06.102
1,1,-2,-2,-6,-3,-1,-1,2025-02-24 12:18:06.113
-3,0,-2,-2,-7,-2,-1,-2,2025-02-24 12:18:06.125
-3,0,-2,-2,-7,-2,-1,-2,2025-02-24 12:18:06.136
-1,-6,-2,-1,-5,0,0,0,2025-02-24 12:18:06.147
-1,-6,-2,-1,-5,0,0,0,2025-02-24 12:18:06.158
-1,-1,-1,-2,-5,0,-2,-2,2025-02-24 12:18:06.169
2,1,4,-3,-4,0,0,0,2025-02-24 12:18:06.181
2,1,4,-3,-4,0,0,0,2025-02-24 12:18:06.192
-1,5,20,-1,-8,-2,-3,-2,2025-02-24 12:18:06.203
1,-1,-9,-1,-8,-1,0,-1,2025-02-24 12:18:06.214
-3,-4,-2,-1,-9,-1,-1,-3,2025-02-24 12:18:06.225
-2,4,1,1,-6,0,-2,-1,2025-02-24 12:18:06.237
-2,-1,4,-4,-19,2,-2,-1,2025-02-24 12:18:06.248
-2,-1,4,-4,-19,2,-2,-1,2025-02-24 12:18:06.259
-2,-1,4,-4,-19,2,-2,-1,2025-02-24 12:18:06.270
4,23,59,7,-4,-1,0,2,2025-02-24 12:18:06.281
5,7,-21,1,-3,1,1,1,2025-02-24 12:18:06.293
2,0,-10,-2,-13,-2,0,0,2025-02-24 12:18:06.303
2,0,-10,-2,-13,-2,0,0,2025-02-24 12:18:06.314
1,-7,-5,-4,-34,-2,-1,-1,2025-02-24 12:18:06.325
1,-7,-5,-4,-34,-2,-1,-1,2025-02-24 12:18:06.336
1,-7,-5,-4,-34,-2,-1,-1,2025-02-24 12:18:06.347
1,-7,-5,-4,-34,-2,-1,-1,2025-02-24 12:18:06.359
-2,-13,-9,-4,-10,-1,0,0,2025-02-24 12:18:06.370
-4,-25,-110,-9,-41,0,1,1,2025-02-24 12:18:06.381
1,4,-3,-2,-6,0,-1,2,2025-02-24 12:18:06.393
1,4,-3,-2,-6,0,-1,2,2025-02-24 12:18:06.404
1,-2,-23,-2,-2,-1,-1,2,2025-02-24 12:18:06.415
-2,-3,1,-1,-9,0,0,-3,2025-02-24 12:18:06.426
3,14,49,1,-1,-1,0,-2,2025-02-24 12:18:06.437
-3,-3,-9,-3,-47,-1,-2,-2,2025-02-24 12:18:06.448
-3,-3,-9,-3,-47,-1,-2,-2,2025-02-24 12:18:06.460
2,-10,-35,-4,-8,-2,0,0,2025-02-24 12:18:06.471
-6,7,15,-3,-5,-2,-2,-2,2025-02-24 12:18:06.482
1,-2,3,-1,-3,-1,1,-3,2025-02-24 12:18:06.493
0,-4,-25,0,2,-2,0,1,2025-02-24 12:18:06.504
0,-4,-25,0,2,-2,0,1,2025-02-24 12:18:06.516
-2,-17,-11,-2,1,-2,-1,0,2025-02-24 12:18:06.527
-2,-17,-11,-2,1,-2,-1,0,2025-02-24 12:18:06.538
-2,0,-16,-1,0,0,0,-1,2025-02-24 12:18:06.549
2,-4,15,-2,-7,-2,-2,-1,2025-02-24 12:18:06.565
2,-4,15,-2,-7,-2,-2,-1,2025-02-24 12:18:06.572
-2,4,14,-2,-3,-3,0,-2,2025-02-24 12:18:06.581
-2,2,69,1,-4,-2,-1,-3,2025-02-24 12:18:06.592
-2,-3,-7,-4,-4,1,-1,-2,2025-02-24 12:18:06.602
-20,-3,42,-10,-9,-6,-6,-9,2025-02-24 12:18:06.614
2,-3,-44,0,-4,0,-1,-2,2025-02-24 12:18:06.625
5,4,-17,2,1,0,2,1,2025-02-24 12:18:06.636
2,1,-19,-1,-1,0,-1,2,2025-02-24 12:18:06.647
2,1,-19,-1,-1,0,-1,2,2025-02-24 12:18:06.658
-17,-40,-71,-17,-1,1,0,-3,2025-02-24 12:18:06.670
-17,-40,-71,-17,-1,1,0,-3,2025-02-24 12:18:06.681
6,7,5,3,-3,-1,-2,1,2025-02-24 12:18:06.692
6,7,5,3,-3,-1,-2,1,2025-02-24 12:18:06.703
-2,-12,10,-1,-3,0,0,-1,2025-02-24 12:18:06.714
-2,-12,10,-1,-3,0,0,-1,2025-02-24 12:18:06.726
2,8,1,0,-2,-1,0,-1,2025-02-24 12:18:06.737
2,8,1,0,-2,-1,0,-1,2025-02-24 12:18:06.748
-2,6,8,4,0,-1,-2,-3,2025-02-24 12:18:06.759
-29,11,-4,1,-2,-2,0,-2,2025-02-24 12:18:06.770
-29,11,-4,1,-2,-2,0,-2,2025-02-24 12:18:06.781
-3,3,31,1,-5,-2,-3,-2,2025-02-24 12:18:06.792
4,5,5,-1,-5,-2,-1,0,2025-02-24 12:18:06.804
4,5,5,-1,-5,-2,-1,0,2025-02-24 12:18:06.815
3,-6,25,-1,-3,-1,-2,-2,2025-02-24 12:18:06.826
3,-6,25,-1,-3,-1,-2,-2,2025-02-24 12:18:06.837
3,-6,25,-1,-3,-1,-2,-2,2025-02-24 12:18:06.848
6,-8,-10,-3,-5,-2,-2,-2,2025-02-24 12:18:06.860
12,13,4,3,-5,-2,1,-1,2025-02-24 12:18:06.870
12,13,4,3,-5,-2,1,-1,2025-02-24 12:18:06.881
12,13,4,3,-5,-2,1,-1,2025-02-24 12:18:06.893
12,13,4,3,-5,-2,1,-1,2025-02-24 12:18:06.904
12,13,4,3,-5,-2,1,-1,2025-02-24 12:18:06.915
12,13,4,3,-5,-2,1,-1,2025-02-24 12:18:06.926
-4,-11,-25,-2,-6,-1,-2,0,2025-02-24 12:18:06.938
-9,-4,-2,-2,-4,-1,1,0,2025-02-24 12:18:06.949
-9,-4,-2,-2,-4,-1,1,0,2025-02-24 12:18:06.961
-9,-4,-2,-2,-4,-1,1,0,2025-02-24 12:18:06.973
-2,3,-29,-4,-5,-1,-2,-2,2025-02-24 12:18:06.984
2,5,3,1,-4,-2,-2,-1,2025-02-24 12:18:06.995
-11,-19,3,-9,-7,-1,-1,-3,2025-02-24 12:18:07.006
-11,-19,3,-9,-7,-1,-1,-3,2025-02-24 12:18:07.018
-7,-9,13,-4,-6,-2,-2,-3,2025-02-24 12:18:07.029
-7,-9,13,-4,-6,-2,-2,-3,2025-02-24 12:18:07.041
-12,-41,-66,-7,-2,-2,-2,-4,2025-02-24 12:18:07.052
-12,-41,-66,-7,-2,-2,-2,-4,2025-02-24 12:18:07.063
-13,5,39,-7,-1,-2,-4,-4,2025-02-24 12:18:07.074
-13,5,39,-7,-1,-2,-4,-4,2025-02-24 12:18:07.085
3,3,-3,-3,-2,-1,-1,-2,2025-02-24 12:18:07.097
3,3,-3,-3,-2,-1,-1,-2,2025-02-24 12:18:07.108
3,3,-3,-3,-2,-1,-1,-2,2025-02-24 12:18:07.119
3,3,-3,-3,-2,-1,-1,-2,2025-02-24 12:18:07.130
-13,-6,-9,-10,-10,-3,-3,-5,2025-02-24 12:18:07.141
0,12,12,3,-2,-1,1,0,2025-02-24 12:18:07.153
5,2,-50,-1,-1,0,0,1,2025-02-24 12:18:07.163
5,2,-50,-1,-1,0,0,1,2025-02-24 12:18:07.174
8,9,26,10,0,2,0,1,2025-02-24 12:18:07.185
8,9,26,10,0,2,0,1,2025-02-24 12:18:07.197
-8,-5,1,1,1,-1,-2,-1,2025-02-24 12:18:07.208
-8,-5,1,1,1,-1,-2,-1,2025-02-24 12:18:07.219
-1,5,8,-3,-2,-1,-2,-1,2025-02-24 12:18:07.230
-1,5,8,-3,-2,-1,-2,-1,2025-02-24 12:18:07.242
-13,-24,-4,-7,-3,-2,-3,-4,2025-02-24 12:18:07.253
-13,-24,-4,-7,-3,-2,-3,-4,2025-02-24 12:18:07.263
-1,-9,-43,-4,-4,-1,-1,0,2025-02-24 12:18:07.275
-5,-15,-36,-3,-3,-2,-1,-1,2025-02-24 12:18:07.286
4,-2,-23,2,1,0,0,2,2025-02-24 12:18:07.297
-1,-1,18,-5,-3,-2,-1,-2,2025-02-24 12:18:07.308
-3,7,25,2,-4,0,-1,-1,2025-02-24 12:18:07.319
6,9,7,3,-2,-1,-1,-2,2025-02-24 12:18:07.331
6,9,7,3,-2,-1,-1,-2,2025-02-24 12:18:07.342
-4,3,3,-6,-3,-2,-1,-2,2025-02-24 12:18:07.354
-2,-11,-13,-3,-3,-1,-2,-2,2025-02-24 12:18:07.365
-7,-9,-16,-5,-5,-3,-3,-2,2025-02-24 12:18:07.376
-7,-9,-16,-5,-5,-3,-3,-2,2025-02-24 12:18:07.387
-6,-13,-9,-3,-2,-1,-2,-2,2025-02-24 12:18:07.398
0,0,-17,-2,-2,-2,-1,0,2025-02-24 12:18:07.410
3,6,0,-4,-6,-1,-2,-2,2025-02-24 12:18:07.421
-10,-5,4,-4,-4,-2,-3,-4,2025-02-24 12:18:07.432
-10,-5,4,-4,-4,-2,-3,-4,2025-02-24 12:18:07.443
5,12,1,3,-3,0,1,1,2025-02-24 12:18:07.454
2,0,-14,0,-4,-1,-1,-1,2025-02-24 12:18:07.465
2,0,-14,0,-4,-1,-1,-1,2025-02-24 12:18:07.476
0,-10,-20,-3,-2,-1,-1,1,2025-02-24 12:18:07.488
-2,8,31,2,-4,-1,-2,-1,2025-02-24 12:18:07.499
1,0,5,-1,-1,-2,1,0,2025-02-24 12:18:07.510
1,0,5,-1,-1,-2,1,0,2025-02-24 12:18:07.521
6,4,-6,2,-1,-1,-1,1,2025-02-24 12:18:07.532
6,4,-6,2,-1,-1,-1,1,2025-02-24 12:18:07.544
-1,0,10,-1,-3,2,-2,0,2025-02-24 12:18:07.555
-1,0,10,-1,-3,2,-2,0,2025-02-24 12:18:07.565
-5,-6,-1,-1,-5,-1,-2,-1,2025-02-24 12:18:07.577
3,8,-8,-3,-1,0,0,-1,2025-02-24 12:18:07.588
3,8,-8,-3,-1,0,0,-1,2025-02-24 12:18:07.599
-2,-4,17,3,0,0,1,0,2025-02-24 12:18:07.610
-2,-4,17,3,0,0,1,0,2025-02-24 12:18:07.621
-5,-4,-17,-3,-7,-4,-3,-2,2025-02-24 12:18:07.633
0,-1,-30,0,-2,0,0,-1,2025-02-24 12:18:07.644
0,-1,-30,0,-2,0,0,-1,2025-02-24 12:18:07.655
-1,2,17,-5,-8,-2,-1,-3,2025-02-24 12:18:07.666
-1,2,17,-5,-8,-2,-1,-3,2025-02-24 12:18:07.677
3,6,-19,-1,-1,-2,-1,0,2025-02-24 12:18:07.688
3,6,-19,-1,-1,-2,-1,0,2025-02-24 12:18:07.699
1,1,11,2,-1,-1,0,0,2025-02-24 12:18:07.710
1,1,11,2,-1,-1,0,0,2025-02-24 12:18:07.722
1,1,11,2,-1,-1,0,0,2025-02-24 12:18:07.733
-1,-1,2,-4,-2,1,-1,-3,2025-02-24 12:18:07.744
-2,1,17,-1,-5,0,-1,-1,2025-02-24 12:18:07.756
-2,1,17,-1,-5,0,-1,-1,2025-02-24 12:18:07.767
1,-13,-7,0,-7,-2,-1,2,2025-02-24 12:18:07.778
-2,-12,-6,1,-14,-1,-1,-1,2025-02-24 12:18:07.789
-2,-12,-6,1,-14,-1,-1,-1,2025-02-24 12:18:07.800
-2,-12,-6,1,-14,-1,-1,-1,2025-02-24 12:18:07.812
2,9,-18,2,-14,0,1,-1,2025-02-24 12:18:07.823
-15,-4,11,-1,-5,-3,-4,-5,2025-02-24 12:18:07.833
-15,-4,11,-1,-5,-3,-4,-5,2025-02-24 12:18:07.844
4,0,-13,-1,-7,-2,0,2,2025-02-24 12:18:07.856
4,0,-13,-1,-7,-2,0,2,2025-02-24 12:18:07.867
-9,-15,-31,-5,-6,2,0,-5,2025-02-24 12:18:07.878
-9,-15,-31,-5,-6,2,0,-5,2025-02-24 12:18:07.890
3,-2,-3,-3,-13,-1,0,1,2025-02-24 12:18:07.900
2,6,27,-1,-12,-2,-2,-2,2025-02-24 12:18:07.912
2,6,27,-1,-12,-2,-2,-2,2025-02-24 12:18:07.923
2,6,27,-1,-12,-2,-2,-2,2025-02-24 12:18:07.934
-1,-2,-2,-1,-10,3,-1,-2,2025-02-24 12:18:07.945
2,5,-6,-3,-4,-1,-1,-1,2025-02-24 12:18:07.957
4,0,-4,2,-3,2,-1,0,2025-02-24 12:18:07.967
6,-3,-48,-4,-6,0,0,3,2025-02-24 12:18:07.979
-1,-1,-18,3,-1,-1,0,-1,2025-02-24 12:18:07.990
-1,-1,-18,3,-1,-1,0,-1,2025-02-24 12:18:08.001
0,1,8,0,-6,-2,-1,-1,2025-02-24 12:18:08.012
0,1,8,0,-6,-2,-1,-1,2025-02-24 12:18:08.024
-1,-16,21,-3,-8,-1,-2,-1,2025-02-24 12:18:08.035
-1,-16,21,-3,-8,-1,-2,-1,2025-02-24 12:18:08.046
-4,8,0,3,-5,-4,-2,-2,2025-02-24 12:18:08.057
-3,-12,-21,-4,-7,1,-1,-1,2025-02-24 12:18:08.068
1,1,0,-2,-6,-1,1,-2,2025-02-24 12:18:08.080
0,4,10,-1,-5,0,-2,0,2025-02-24 12:18:08.091
0,4,10,-1,-5,0,-2,0,2025-02-24 12:18:08.102
-1,8,5,-2,-5,-2,-2,-1,2025-02-24 12:18:08.113
-1,8,5,-2,-5,-2,-2,-1,2025-02-24 12:18:08.124
-1,8,5,-2,-5,-2,-2,-1,2025-02-24 12:18:08.136
1,6,9,-2,-7,-1,-1,0,2025-02-24 12:18:08.147
1,6,9,-2,-7,-1,-1,0,2025-02-24 12:18:08.158
-4,-3,2,-2,-4,0,-3,-1,2025-02-24 12:18:08.169
-4,-3,2,-2,-4,0,-3,-1,2025-02-24 12:18:08.180
-3,1,17,-1,-5,-2,-1,-3,2025-02-24 12:18:08.192
-3,1,17,-1,-5,-2,-1,-3,2025-02-24 12:18:08.203
3,1,0,-3,-6,-2,-1,0,2025-02-24 12:18:08.213
3,1,0,-3,-6,-2,-1,0,2025-02-24 12:18:08.224
-1,3,6,0,-5,0,-1,0,2025-02-24 12:18:08.235
-1,3,6,0,-5,0,-1,0,2025-02-24 12:18:08.247
-2,1,-14,0,-4,-1,-2,-3,2025-02-24 12:18:08.258
0,-8,6,3,-5,1,1,0,2025-02-24 12:18:08.269
0,-8,6,3,-5,1,1,0,2025-02-24 12:18:08.280
2,7,9,-3,-8,-2,-2,0,2025-02-24 12:18:08.291
2,7,9,-3,-8,-2,-2,0,2025-02-24 12:18:08.303
0,5,39,-2,-6,0,0,-3,2025-02-24 12:18:08.314
1,2,3,-1,-6,0,-1,0,2025-02-24 12:18:08.325
0,0,-13,-1,-5,-1,0,0,2025-02-24 12:18:08.336
-2,1,-16,1,-4,-3,-2,-2,2025-02-24 12:18:08.347
-1,-6,-1,-4,-22,1,0,0,2025-02-24 12:18:08.359
-1,-6,-1,-4,-22,1,0,0,2025-02-24 12:18:08.370
1,2,4,1,-27,1,0,1,2025-02-24 12:18:08.381
-3,-2,-44,-2,-29,-2,-2,-1,2025-02-24 12:18:08.393
-3,-2,-44,-2,-29,-2,-2,-1,2025-02-24 12:18:08.403
0,-4,-18,-1,-29,-1,-1,-2,2025-02-24 12:18:08.414
0,-4,-18,-1,-29,-1,-1,-2,2025-02-24 12:18:08.425
0,-4,-18,-1,-29,-1,-1,-2,2025-02-24 12:18:08.436
3,-2,-4,-1,-6,0,0,0,2025-02-24 12:18:08.448
3,-2,-4,-1,-6,0,0,0,2025-02-24 12:18:08.459
-1,2,3,1,-4,-1,-3,0,2025-02-24 12:18:08.471
-1,2,3,1,-4,-1,-3,0,2025-02-24 12:18:08.482
-3,-2,-10,1,-4,-2,-1,-2,2025-02-24 12:18:08.493
-1,-5,2,-1,-6,-1,0,0,2025-02-24 12:18:08.504
-2,-1,-26,1,-5,-2,-1,-1,2025-02-24 12:18:08.515
-2,-1,-26,1,-5,-2,-1,-1,2025-02-24 12:18:08.527
-1,1,10,0,-6,-1,-1,-2,2025-02-24 12:18:08.538
-1,1,10,0,-6,-1,-1,-2,2025-02-24 12:18:08.549
-3,-3,5,-2,-6,-1,-2,-2,2025-02-24 12:18:08.560
0,-3,8,-2,-2,0,1,1,2025-02-24 12:18:08.571
0,-3,8,-2,-2,0,1,1,2025-02-24 12:18:08.582
0,-3,8,-2,-2,0,1,1,2025-02-24 12:18:08.593
-1,-4,1,0,-12,0,-2,-1,2025-02-24 12:18:08.605
-4,-2,5,-2,-39,-1,0,-2,2025-02-24 12:18:08.616
-4,-5,3,-1,-37,-1,-2,-1,2025-02-24 12:18:08.627
-4,-5,3,-1,-37,-1,-2,-1,2025-02-24 12:18:08.639
-4,-2,0,-2,-37,-1,1,-1,2025-02-24 12:18:08.649
-4,-2,0,-2,-37,-1,1,-1,2025-02-24 12:18:08.660
0,0,-5,-1,-36,-1,-2,-2,2025-02-24 12:18:08.671
0,0,-5,-1,-36,-1,-2,-2,2025-02-24 12:18:08.682
-3,-3,5,0,-50,-2,-2,-2,2025-02-24 12:18:08.693
-3,-3,5,0,-50,-2,-2,-2,2025-02-24 12:18:08.705
2,-3,-2,-2,-10,0,-1,1,2025-02-24 12:18:08.716
2,-3,-2,-2,-10,0,-1,1,2025-02-24 12:18:08.727
2,-3,-2,-2,-10,0,-1,1,2025-02-24 12:18:08.738
2,-3,-2,-2,-10,0,-1,1,2025-02-24 12:18:08.749
2,-3,-2,-2,-10,0,-1,1,2025-02-24 12:18:08.761
-3,0,2,-1,-5,-1,-2,-2,2025-02-24 12:18:08.772
-2,2,-14,-2,-4,0,0,-2,2025-02-24 12:18:08.784
-2,2,-14,-2,-4,0,0,-2,2025-02-24 12:18:08.795
-2,2,-14,-2,-4,0,0,-2,2025-02-24 12:18:08.805
-2,-1,-17,-3,-3,-2,-2,-1,2025-02-24 12:18:08.816
-2,-1,-17,-3,-3,-2,-2,-1,2025-02-24 12:18:08.827
-2,-1,-17,-3,-3,-2,-2,-1,2025-02-24 12:18:08.839
-2,-1,-17,-3,-3,-2,-2,-1,2025-02-24 12:18:08.850
-2,-1,-17,-3,-3,-2,-2,-1,2025-02-24 12:18:08.861
-2,-1,-17,-3,-3,-2,-2,-1,2025-02-24 12:18:08.873
3,6,2,-3,1,0,0,0,2025-02-24 12:18:08.884
3,6,2,-3,1,0,0,0,2025-02-24 12:18:08.895
3,6,2,-3,1,0,0,0,2025-02-24 12:18:08.906
0,-3,-14,3,-2,1,-1,-1,2025-02-24 12:18:08.917
0,-3,-14,3,-2,1,-1,-1,2025-02-24 12:18:08.929
0,-3,-14,3,-2,1,-1,-1,2025-02-24 12:18:08.940
-3,-4,7,-2,-4,0,0,-1,2025-02-24 12:18:08.952
-6,-4,1,1,-3,-3,-1,-5,2025-02-24 12:18:08.962
-6,-4,1,1,-3,-3,-1,-5,2025-02-24 12:18:08.973
-6,-4,1,1,-3,-3,-1,-5,2025-02-24 12:18:08.984
0,-8,-12,-3,-3,-1,-1,-2,2025-02-24 12:18:08.995
0,-8,-12,-3,-3,-1,-1,-2,2025-02-24 12:18:09.007
1,1,12,1,-3,-2,-3,-1,2025-02-24 12:18:09.018
1,1,12,1,-3,-2,-3,-1,2025-02-24 12:18:09.029
-3,-5,-18,-1,-3,-1,0,-2,2025-02-24 12:18:09.040
-3,-5,-18,-1,-3,-1,0,-2,2025-02-24 12:18:09.051
-3,-5,-18,-1,-3,-1,0,-2,2025-02-24 12:18:09.063
1,0,1,0,-2,-2,2,0,2025-02-24 12:18:09.073
0,3,30,0,-1,0,0,-1,2025-02-24 12:18:09.084
0,3,30,0,-1,0,0,-1,2025-02-24 12:18:09.096
-2,1,5,-3,-4,-2,-3,0,2025-02-24 12:18:09.107
-2,-2,6,-3,-3,2,-2,0,2025-02-24 12:18:09.118
-5,-4,-24,-4,0,-1,0,-2,2025-02-24 12:18:09.129
-5,-4,-24,-4,0,-1,0,-2,2025-02-24 12:18:09.140
-3,1,-2,-3,-5,-1,-3,-2,2025-02-24 12:18:09.152
1,2,-8,5,1,0,-1,0,2025-02-24 12:18:09.163
0,3,-6,-2,-3,-2,0,0,2025-02-24 12:18:09.175
0,-5,-7,-2,-5,-2,-2,-1,2025-02-24 12:18:09.185
-5,-5,3,-4,-5,-1,-3,-3,2025-02-24 12:18:09.196
-5,-5,3,-4,-5,-1,-3,-3,2025-02-24 12:18:09.207
-1,-4,2,0,-3,0,0,-1,2025-02-24 12:18:09.218
-1,-4,2,0,-3,0,0,-1,2025-02-24 12:18:09.230
-1,-4,2,-4,-3,-2,0,0,2025-02-24 12:18:09.241
-1,-2,11,2,-4,-3,-1,-1,2025-02-24 12:18:09.252
4,-1,-4,3,-1,-1,-1,-1,2025-02-24 12:18:09.264
2,4,-5,-1,-3,-3,-1,-1,2025-02-24 12:18:09.275
2,4,-5,-1,-3,-3,-1,-1,2025-02-24 12:18:09.286
0,4,3,-2,-2,0,0,-1,2025-02-24 12:18:09.297
-4,-2,-5,-3,-3,0,-3,-2,2025-02-24 12:18:09.308
-4,-2,-5,-3,-3,0,-3,-2,2025-02-24 12:18:09.319
1,-1,19,-1,-2,0,-2,-1,2025-02-24 12:18:09.330
-2,2,7,-2,-2,1,-3,-3,2025-02-24 12:18:09.341
1,-2,-16,-4,-4,0,1,0,2025-02-24 12:18:09.353
-3,-2,6,0,-4,-2,0,-2,2025-02-24 12:18:09.364
-1,2,-5,1,-3,-1,-1,-1,2025-02-24 12:18:09.375
-4,-3,-8,-4,-4,-1,-3,-1,2025-02-24 12:18:09.386
-4,-3,-8,-4,-4,-1,-3,-1,2025-02-24 12:18:09.397
-4,0,-7,-3,-7,-2,-1,-1,2025-02-24 12:18:09.409
2,1,-7,-1,-18,1,0,0,2025-02-24 12:18:09.420
-2,3,2,0,3,-2,-2,-1,2025-02-24 12:18:09.431
1,5,6,1,-10,-3,-2,0,2025-02-24 12:18:09.442
-1,-4,-5,1,-1,0,-2,0,2025-02-24 12:18:09.453
0,3,0,-1,-6,-2,0,-1,2025-02-24 12:18:09.465
-5,-5,-3,-1,-4,0,0,-2,2025-02-24 12:18:09.475
-3,3,-5,-1,-6,-1,-1,0,2025-02-24 12:18:09.487
-11,1,-6,-3,-7,-1,-1,-1,2025-02-24 12:18:09.498
-11,1,-6,-3,-7,-1,-1,-1,2025-02-24 12:18:09.509
4,-9,-7,-2,-9,-2,-2,-1,2025-02-24 12:18:09.520
4,-9,-7,-2,-9,-2,-2,-1,2025-02-24 12:18:09.532
1,-3,-6,-3,-6,-1,-1,0,2025-02-24 12:18:09.543
2,2,1,0,-4,-1,-2,0,2025-02-24 12:18:09.554
1,1,-3,-3,-3,-1,-1,1,2025-02-24 12:18:09.565
-6,-8,-10,0,-5,0,-1,0,2025-02-24 12:18:09.576
-6,-8,-10,0,-5,0,-1,0,2025-02-24 12:18:09.588
1,3,15,-2,-5,0,-3,-4,2025-02-24 12:18:09.599
-1,6,5,2,-3,-3,0,1,2025-02-24 12:18:09.610
1,-4,3,0,-7,-3,-2,-1,2025-02-24 12:18:09.622
-10,-11,-4,-5,-5,1,-1,-2,2025-02-24 12:18:09.633
-10,-11,-4,-5,-5,1,-1,-2,2025-02-24 12:18:09.644
3,2,3,2,-5,-1,1,0,2025-02-24 12:18:09.655
3,2,3,2,-5,-1,1,0,2025-02-24 12:18:09.666
1,2,-11,-5,-6,0,-3,-1,2025-02-24 12:18:09.677
1,2,-11,-5,-6,0,-3,-1,2025-02-24 12:18:09.688
1,-5,-5,-1,-12,-2,1,-1,2025-02-24 12:18:09.699
1,-5,-5,-1,-12,-2,1,-1,2025-02-24 12:18:09.710
7,-4,5,-2,-33,-2,-1,-2,2025-02-24 12:18:09.722
7,-4,5,-2,-33,-2,-1,-2,2025-02-24 12:18:09.733
-24,5,3,0,-4,-2,0,-2,2025-02-24 12:18:09.744
2,1,3,3,-4,-3,-1,-1,2025-02-24 12:18:09.755
2,1,3,3,-4,-3,-1,-1,2025-02-24 12:18:09.766
2,1,3,3,-4,-3,-1,-1,2025-02-24 12:18:09.777
-5,-2,-1,-1,-5,-2,-1,-1,2025-02-24 12:18:09.789
14,13,13,5,-4,-2,0,0,2025-02-24 12:18:09.800
-7,-9,-15,-2,-11,0,-2,0,2025-02-24 12:18:09.811
1,4,17,2,-8,-1,-1,-1,2025-02-24 12:18:09.822
1,4,17,2,-8,-1,-1,-1,2025-02-24 12:18:09.834
1,4,17,2,-8,-1,-1,-1,2025-02-24 12:18:09.845
1,4,17,2,-8,-1,-1,-1,2025-02-24 12:18:09.856
6,7,13,2,-2,-4,-1,1,2025-02-24 12:18:09.866
-4,-5,4,0,-1,0,-2,-1,2025-02-24 12:18:09.878
5,-3,-2,0,-4,0,-1,1,2025-02-24 12:18:09.889
5,-3,-2,0,-4,0,-1,1,2025-02-24 12:18:09.900
-2,-2,-3,-3,-5,0,-1,-3,2025-02-24 12:18:09.911
-1,-2,-10,0,0,-1,1,-1,2025-02-24 12:18:09.923
-1,2,-8,-5,-5,-2,0,-2,2025-02-24 12:18:09.934
0,-4,-9,0,-2,0,-1,1,2025-02-24 12:18:09.945
-3,-2,-4,-1,-3,0,-1,-1,2025-02-24 12:18:09.957
-3,-2,-4,-1,-3,0,-1,-1,2025-02-24 12:18:09.967
-3,-4,-8,-4,-4,-3,-1,0,2025-02-24 12:18:09.978
-2,-2,-1,-2,-3,-3,-1,-2,2025-02-24 12:18:09.989
-10,-12,0,-3,-7,-3,-3,-3,2025-02-24 12:18:10.000
-10,-12,0,-3,-7,-3,-3,-3,2025-02-24 12:18:10.012
3,5,-3,-1,-2,0,0,0,2025-02-24 12:18:10.023
3,5,-3,-1,-2,0,0,0,2025-02-24 12:18:10.034
1,0,-8,-4,-4,1,0,0,2025-02-24 12:18:10.045
1,0,-8,-4,-4,1,0,0,2025-02-24 12:18:10.057
-2,-4,4,-2,-4,-3,-2,0,2025-02-24 12:18:10.068
-2,-4,4,-2,-4,-3,-2,0,2025-02-24 12:18:10.079
-2,-4,4,-2,-4,-3,-2,0,2025-02-24 12:18:10.090
-2,-4,4,-2,-4,-3,-2,0,2025-02-24 12:18:10.102
6,6,-3,1,-4,-1,-1,1,2025-02-24 12:18:10.113
6,6,-3,1,-4,-1,-1,1,2025-02-24 12:18:10.124
6,6,-3,1,-4,-1,-1,1,2025-02-24 12:18:10.135
-4,-5,1,1,-5,0,-3,-2,2025-02-24 12:18:10.146
-1,-3,1,0,-4,-2,-2,-3,2025-02-24 12:18:10.157
0,0,-5,-1,-3,-1,-1,0,2025-02-24 12:18:10.168
5,6,12,3,-4,-1,0,0,2025-02-24 12:18:10.180
-4,-6,-12,2,-1,-1,-1,-2,2025-02-24 12:18:10.191
0,-2,-10,-2,-5,0,-2,0,2025-02-24 12:18:10.202
0,-2,-10,-2,-5,0,-2,0,2025-02-24 12:18:10.213
-2,0,-6,-2,-3,0,1,-2,2025-02-24 12:18:10.224
0,-1,-5,-4,-3,-1,2,1,2025-02-24 12:18:10.236
2,2,-15,1,-1,-1,-2,-1,2025-02-24 12:18:10.247
2,2,-15,1,-1,-1,-2,-1,2025-02-24 12:18:10.258
2,-1,18,1,-3,0,-2,-1,2025-02-24 12:18:10.269
1,2,2,3,-3,-1,0,-2,2025-02-24 12:18:10.280
-4,-5,6,-4,-7,-2,-1,-4,2025-02-24 12:18:10.291
0,4,-1,-2,-1,-1,1,-1,2025-02-24 12:18:10.302
-4,-1,0,1,-1,-2,-1,-4,2025-02-24 12:18:10.314
-2,-1,-6,-1,-4,-1,-1,0,2025-02-24 12:18:10.325
2,4,0,1,-2,-2,-2,1,2025-02-24 12:18:10.336
-1,-4,-3,-2,-2,0,-1,-2,2025-02-24 12:18:10.347
-1,2,12,-3,-3,-1,-2,-2,2025-02-24 12:18:10.358
0,2,1,2,-3,-1,-1,-1,2025-02-24 12:18:10.369
-7,-10,-6,-6,-4,-3,0,-1,2025-02-24 12:18:10.380
-7,-10,-6,-6,-4,-3,0,-1,2025-02-24 12:18:10.392
2,0,-18,1,-2,-1,-2,-1,2025-02-24 12:18:10.402
2,0,-18,1,-2,-1,-2,-1,2025-02-24 12:18:10.414
1,0,-7,-2,-3,0,0,-2,2025-02-24 12:18:10.425
1,0,-7,-2,-3,0,0,-2,2025-02-24 12:18:10.436
1,3,16,-1,-2,0,-2,0,2025-02-24 12:18:10.448
0,2,6,1,-1,1,-1,-2,2025-02-24 12:18:10.459
2,4,4,0,-3,1,0,1,2025-02-24 12:18:10.470
1,0,1,3,-1,-2,0,-1,2025-02-24 12:18:10.482
1,0,1,3,-1,-2,0,-1,2025-02-24 12:18:10.493
-1,3,6,-2,-3,-2,0,-1,2025-02-24 12:18:10.504
-1,3,6,-2,-3,-2,0,-1,2025-02-24 12:18:10.515
0,-1,5,-2,-4,-2,-2,-2,2025-02-24 12:18:10.526
-3,-3,-3,0,-2,-2,-3,-3,2025-02-24 12:18:10.537
-3,-3,-3,0,-2,-2,-3,-3,2025-02-24 12:18:10.548
1,-2,0,1,-3,-2,-1,0,2025-02-24 12:18:10.559
1,-2,0,1,-3,-2,-1,0,2025-02-24 12:18:10.570
-3,-3,-8,0,-1,-1,-2,-1,2025-02-24 12:18:10.581
1,4,0,1,-3,-2,-1,-1,2025-02-24 12:18:10.592
-8,-8,-6,-7,-3,-3,-2,-2,2025-02-24 12:18:10.604
1,2,-13,-4,-3,-1,-2,-2,2025-02-24 12:18:10.615
1,2,-13,-4,-3,-1,-2,-2,2025-02-24 12:18:10.626
-3,-4,-1,-1,-4,-3,-2,-1,2025-02-24 12:18:10.637
-3,-4,-1,-1,-4,-3,-2,-1,2025-02-24 12:18:10.648
0,-1,0,-1,-3,-1,-1,-1,2025-02-24 12:18:10.660
0,-1,0,-1,-3,-1,-1,-1,2025-02-24 12:18:10.671
-6,-7,1,-3,-3,-2,-4,-2,2025-02-24 12:18:10.682
-6,-7,1,-3,-3,-2,-4,-2,2025-02-24 12:18:10.694
2,4,7,5,-1,2,-1,-1,2025-02-24 12:18:10.705
2,4,7,5,-1,2,-1,-1,2025-02-24 12:18:10.716
1,2,10,-2,-2,-2,0,-1,2025-02-24 12:18:10.727
-8,-7,-8,-5,-5,-2,-1,-3,2025-02-24 12:18:10.737
-8,-7,-8,-5,-5,-2,-1,-3,2025-02-24 12:18:10.749
3,2,0,1,-3,0,-1,1,2025-02-24 12:18:10.760
-2,1,-7,-3,-1,0,-1,-1,2025-02-24 12:18:10.772
-2,1,-7,-3,-1,0,-1,-1,2025-02-24 12:18:10.783
1,3,1,0,-3,-2,-3,-2,2025-02-24 12:18:10.794
-3,4,1,-1,-1,-1,0,0,2025-02-24 12:18:10.805
-5,-1,6,5,-4,-1,-2,-1,2025-02-24 12:18:10.816
-2,-2,-2,-2,-3,-1,-2,-2,2025-02-24 12:18:10.828
-3,-2,-14,-3,-3,-1,-3,-2,2025-02-24 12:18:10.839
0,-5,-7,-1,-2,-2,1,-1,2025-02-24 12:18:10.850
0,-5,-4,-1,-4,-3,-1,-4,2025-02-24 12:18:10.861
0,-5,-4,-1,-4,-3,-1,-4,2025-02-24 12:18:10.872
0,-2,4,3,-3,-1,1,0,2025-02-24 12:18:10.883
0,-3,3,0,-3,-3,-3,0,2025-02-24 12:18:10.894
-4,0,-3,-1,-6,-1,-1,-1,2025-02-24 12:18:10.906
-4,0,-3,-1,-6,-1,-1,-1,2025-02-24 12:18:10.917
2,5,-12,-2,-1,0,0,-3,2025-02-24 12:18:10.928
2,5,-12,-2,-1,0,0,-3,2025-02-24 12:18:10.939
-2,-4,-3,0,-1,-1,-1,-2,2025-02-24 12:18:10.950
-2,-4,-3,0,-1,-1,-1,-2,2025-02-24 12:18:10.962
-3,-3,1,6,-2,0,-2,0,2025-02-24 12:18:10.973
0,0,2,-3,-3,0,-1,0,2025-02-24 12:18:10.983
0,0,2,-3,-3,0,-1,0,2025-02-24 12:18:10.995
0,0,2,-3,-3,0,-1,0,2025-02-24 12:18:11.006
0,3,13,1,-3,-2,-2,-2,2025-02-24 12:18:11.017
-1,-2,-4,-1,-2,-1,0,1,2025-02-24 12:18:11.028
-2,0,-4,1,-2,-2,-2,-1,2025-02-24 12:18:11.040
-2,0,-4,1,-2,-2,-2,-1,2025-02-24 12:18:11.051
-2,-1,3,-3,-4,-2,-1,-2,2025-02-24 12:18:11.062
-2,-1,3,-3,-4,-2,-1,-2,2025-02-24 12:18:11.074
-2,-1,3,-3,-4,-2,-1,-2,2025-02-24 12:18:11.085
0,-2,-4,-1,-3,-2,-1,-1,2025-02-24 12:18:11.096
0,-2,-4,-1,-3,-2,-1,-1,2025-02-24 12:18:11.107
0,-2,-4,-1,-3,-2,-1,-1,2025-02-24 12:18:11.118
0,-2,-4,-1,-3,-2,-1,-1,2025-02-24 12:18:11.128
-1,-5,-1,4,-1,1,-1,-1,2025-02-24 12:18:11.140
0,4,3,-2,0,-1,-1,-1,2025-02-24 12:18:11.151
0,4,3,-2,0,-1,-1,-1,2025-02-24 12:18:11.162
0,4,3,-2,0,-1,-1,-1,2025-02-24 12:18:11.174
2,0,-8,-2,-2,0,0,0,2025-02-24 12:18:11.184
2,0,-8,-2,-2,0,0,0,2025-02-24 12:18:11.196
-3,-3,-8,-4,-3,-2,-2,-2,2025-02-24 12:18:11.207
1,2,1,-2,-4,-2,-1,-1,2025-02-24 12:18:11.218
1,2,1,-2,-4,-2,-1,-1,2025-02-24 12:18:11.229
1,2,1,-2,-4,-2,-1,-1,2025-02-24 12:18:11.240
1,2,1,-2,-4,-2,-1,-1,2025-02-24 12:18:11.252
1,2,1,-2,-4,-2,-1,-1,2025-02-24 12:18:11.263
-6,-6,-3,-1,-4,0,-1,-4,2025-02-24 12:18:11.274
-3,-4,-3,-3,-1,-1,0,1,2025-02-24 12:18:11.285
1,3,-2,0,-3,0,-1,1,2025-02-24 12:18:11.296
2,0,3,-1,-1,-2,0,-1,2025-02-24 12:18:11.308
-4,-3,-2,-1,-1,0,-2,0,2025-02-24 12:18:11.319
-4,-3,-2,-1,-1,0,-2,0,2025-02-24 12:18:11.331
0,-2,-2,-3,-4,-2,-2,-3,2025-02-24 12:18:11.342
0,-2,-2,-3,-4,-2,-2,-3,2025-02-24 12:18:11.352
-5,-2,7,1,-3,-1,-1,-2,2025-02-24 12:18:11.363
-5,-2,7,1,-3,-1,-1,-2,2025-02-24 12:18:11.374
3,4,-2,-1,-4,0,-2,0,2025-02-24 12:18:11.385
3,4,-2,-1,-4,0,-2,0,2025-02-24 12:18:11.397
-1,0,-5,-1,-2,-1,-1,0,2025-02-24 12:18:11.409
-4,-1,-3,1,-3,0,-2,0,2025-02-24 12:18:11.419
-4,-1,-3,1,-3,0,-2,0,2025-02-24 12:18:11.431
0,3,2,1,-4,-2,-1,-1,2025-02-24 12:18:11.442
3,3,-9,-1,1,0,-1,1,2025-02-24 12:18:11.452
5,3,-5,0,-4,-1,-3,1,2025-02-24 12:18:11.464
-5,-7,-2,0,-4,0,0,-3,2025-02-24 12:18:11.475
3,5,0,1,-2,0,0,-2,2025-02-24 12:18:11.486
0,2,5,1,-4,-2,-1,-1,2025-02-24 12:18:11.497
-3,-3,1,-3,-4,-2,-2,-1,2025-02-24 12:18:11.509
-1,0,-8,0,-2,-2,0,-2,2025-02-24 12:18:11.520
-1,0,-8,0,-2,-2,0,-2,2025-02-24 12:18:11.531
-2,-3,2,-1,-3,-2,-1,-2,2025-02-24 12:18:11.542
-2,-3,2,-1,-3,-2,-1,-2,2025-02-24 12:18:11.553
-2,-3,2,-1,-3,-2,-1,-2,2025-02-24 12:18:11.565
0,-1,0,1,-3,-2,0,-1,2025-02-24 12:18:11.576
0,-1,-3,-2,-3,-1,-1,-1,2025-02-24 12:18:11.587
-2,-4,-5,3,-1,-1,-2,-2,2025-02-24 12:18:11.598
2,1,5,0,-1,-1,-1,-1,2025-02-24 12:18:11.609
2,4,-1,-3,-4,0,-3,1,2025-02-24 12:18:11.620
-1,-1,-4,1,0,1,1,-1,2025-02-24 12:18:11.632
-1,1,-2,-3,-3,-1,-3,0,2025-02-24 12:18:11.643
-1,1,-2,-3,-3,-1,-3,0,2025-02-24 12:18:11.654
1,-3,1,1,-2,-1,-3,-3,2025-02-24 12:18:11.665
1,-3,1,1,-2,-1,-3,-3,2025-02-24 12:18:11.676
-3,-9,-8,-5,-5,1,0,-1,2025-02-24 12:18:11.688
3,3,2,-1,-2,2,0,0,2025-02-24 12:18:11.699
4,7,3,1,-2,-2,-1,2,2025-02-24 12:18:11.710
0,-1,-14,0,-1,-2,-1,1,2025-02-24 12:18:11.721
0,3,1,5,1,0,0,-1,2025-02-24 12:18:11.732
0,-1,3,3,-3,-1,-1,-1,2025-02-24 12:18:11.744
-1,-4,0,2,-2,0,-1,-2,2025-02-24 12:18:11.755
-2,-8,3,-6,-3,-1,-1,-1,2025-02-24 12:18:11.766
-4,-1,-3,-3,1,-1,0,-1,2025-02-24 12:18:11.777
-4,-1,-3,-3,1,-1,0,-1,2025-02-24 12:18:11.789
-2,-1,-3,-1,-3,-2,-1,-2,2025-02-24 12:18:11.800
-2,-1,-3,-1,-3,-2,-1,-2,2025-02-24 12:18:11.811
-3,1,1,1,-3,-1,-2,1,2025-02-24 12:18:11.822
1,1,-5,-4,-4,-1,-2,-2,2025-02-24 12:18:11.833
-5,-5,-4,-3,-3,-1,0,-2,2025-02-24 12:18:11.844
-2,-7,-1,-2,-4,-2,0,-1,2025-02-24 12:18:11.855
0,-1,-2,-4,-3,0,-2,-2,2025-02-24 12:18:11.866
-2,-3,-6,-3,-5,-3,-1,-2,2025-02-24 12:18:11.877
-1,0,-6,-1,-2,0,0,0,2025-02-24 12:18:11.888
0,1,-1,1,-5,-1,-1,-3,2025-02-24 12:18:11.899
0,1,-1,1,-5,-1,-1,-3,2025-02-24 12:18:11.911
0,1,-1,1,-5,-1,-1,-3,2025-02-24 12:18:11.922
-1,-1,6,2,-3,-2,-2,-1,2025-02-24 12:18:11.933
-1,-1,6,2,-3,-2,-2,-1,2025-02-24 12:18:11.944
-1,-1,6,2,-3,-2,-2,-1,2025-02-24 12:18:11.956
0,2,-2,1,-3,-3,-4,-1,2025-02-24 12:18:11.967
0,2,-2,1,-3,-3,-4,-1,2025-02-24 12:18:11.978
-1,0,7,6,0,-1,0,-1,2025-02-24 12:18:11.989
-1,0,7,6,0,-1,0,-1,2025-02-24 12:18:12.000
-2,-4,-3,-2,-4,-1,-1,-2,2025-02-24 12:18:12.012
1,3,0,-1,-1,0,-1,-1,2025-02-24 12:18:12.023
1,3,0,-1,-1,0,-1,-1,2025-02-24 12:18:12.034
-1,1,2,0,-2,0,2,-1,2025-02-24 12:18:12.045
-1,0,-6,-4,-5,-3,-1,0,2025-02-24 12:18:12.056
-1,0,-6,-4,-5,-3,-1,0,2025-02-24 12:18:12.067
1,1,1,1,-1,-3,0,0,2025-02-24 12:18:12.078
-3,-4,-2,-3,-5,-1,-2,-2,2025-02-24 12:18:12.089
-3,-4,-2,-3,-5,-1,-2,-2,2025-02-24 12:18:12.100
-3,-4,-2,-3,-5,-1,-2,-2,2025-02-24 12:18:12.112
-4,-4,-7,-2,-1,1,1,-1,2025-02-24 12:18:12.123
-3,-8,-3,0,-3,-2,-2,-1,2025-02-24 12:18:12.134
3,9,7,0,0,0,-1,0,2025-02-24 12:18:12.145
3,9,7,0,0,0,-1,0,2025-02-24 12:18:12.157
3,8,-8,1,-2,-1,-1,-2,2025-02-24 12:18:12.168
3,8,-8,1,-2,-1,-1,-2,2025-02-24 12:18:12.179
3,8,-8,1,-2,-1,-1,-2,2025-02-24 12:18:12.191
3,8,-8,1,-2,-1,-1,-2,2025-02-24 12:18:12.202
-3,-4,-4,-2,-3,-1,-2,-1,2025-02-24 12:18:12.213
1,8,0,-2,-2,-1,0,-1,2025-02-24 12:18:12.224
0,-28,-21,-3,0,1,-1,0,2025-02-24 12:18:12.234
3,16,7,4,-2,-1,2,0,2025-02-24 12:18:12.246
-3,14,-7,-2,-1,-1,0,-2,2025-02-24 12:18:12.257
-3,14,-7,-2,-1,-1,0,-2,2025-02-24 12:18:12.268
1,-4,0,-1,-3,-2,1,-2,2025-02-24 12:18:12.280
-3,-26,-36,0,-3,-1,-2,-2,2025-02-24 12:18:12.291
-3,-26,-36,0,-3,-1,-2,-2,2025-02-24 12:18:12.302
4,27,9,3,-2,-1,0,1,2025-02-24 12:18:12.313
-14,-8,25,-9,-8,-4,-5,-7,2025-02-24 12:18:12.324
-14,-8,25,-9,-8,-4,-5,-7,2025-02-24 12:18:12.336
-15,-32,-124,-23,-10,-3,-3,-3,2025-02-24 12:18:12.347
-15,-32,-124,-23,-10,-3,-3,-3,2025-02-24 12:18:12.358
12,-1,47,10,5,1,2,3,2025-02-24 12:18:12.369
12,-1,47,10,5,1,2,3,2025-02-24 12:18:12.380
-1,11,37,0,-5,-1,-2,-3,2025-02-24 12:18:12.391
5,3,47,5,-1,2,2,3,2025-02-24 12:18:12.402
5,3,47,5,-1,2,2,3,2025-02-24 12:18:12.413
14,-15,-49,3,5,3,4,6,2025-02-24 12:18:12.425
5,20,-22,4,2,0,-1,0,2025-02-24 12:18:12.436
-6,-42,-61,-2,-2,-2,-1,1,2025-02-24 12:18:12.447
-6,-42,-61,-2,-2,-2,-1,1,2025-02-24 12:18:12.458
-4,-26,-48,-8,-5,5,-2,4,2025-02-24 12:18:12.469
-4,-26,-48,-8,-5,5,-2,4,2025-02-24 12:18:12.481
-20,-18,60,-19,-10,-6,-8,-17,2025-02-24 12:18:12.492
10,28,-2,12,2,3,8,24,2025-02-24 12:18:12.503
10,28,-2,12,2,3,8,24,2025-02-24 12:18:12.514
3,19,3,-1,-5,-8,-12,1,2025-02-24 12:18:12.526
3,19,3,-1,-5,-8,-12,1,2025-02-24 12:18:12.537
7,6,-7,4,1,0,4,6,2025-02-24 12:18:12.548
4,16,14,5,-5,-7,-5,0,2025-02-24 12:18:12.559
-6,-18,-5,1,-3,2,0,-22,2025-02-24 12:18:12.570
1,-5,-25,1,-3,-1,1,15,2025-02-24 12:18:12.582
1,-5,-25,1,-3,-1,1,15,2025-02-24 12:18:12.593
-2,-34,-48,-5,-3,-3,7,20,2025-02-24 12:18:12.604
-3,-8,4,-3,-4,-4,-11,-2,2025-02-24 12:18:12.614
-3,-8,4,-3,-4,-4,-11,-2,2025-02-24 12:18:12.626
-3,-8,4,-3,-4,-4,-11,-2,2025-02-24 12:18:12.636
-7,-21,77,2,-1,-3,1,4,2025-02-24 12:18:12.648
-7,-21,77,2,-1,-3,1,4,2025-02-24 12:18:12.659
5,-3,-12,0,-3,0,8,-8,2025-02-24 12:18:12.670
-4,-21,-9,-1,-1,1,1,-7,2025-02-24 12:18:12.681
2,5,-6,5,-1,0,2,-13,2025-02-24 12:18:12.692
-5,14,-15,-7,-4,-3,0,16,2025-02-24 12:18:12.704
-5,14,-15,-7,-4,-3,0,16,2025-02-24 12:18:12.715
-3,-8,-48,-4,-4,-4,0,11,2025-02-24 12:18:12.726
9,5,46,2,-4,-2,1,-21,2025-02-24 12:18:12.737
5,13,-6,3,2,0,-3,-9,2025-02-24 12:18:12.748
