Raw EMG - Pod01,Raw EMG - Pod02,Raw EMG - Pod03,Raw EMG - Pod04,Raw EMG - Pod05,Raw EMG - Pod06,Raw EMG - Pod07,Raw EMG - Pod08,Timestamp,activeCube Cube
-1,1,-2,0,-31,-1,-34,-2,2025-02-24 12:31:42.780,2.0
-18,-3,-2,-1,-31,-2,1,-6,2025-02-24 12:31:42.787,2.0
-18,-3,-2,-1,-31,-2,1,-6,2025-02-24 12:31:42.799,2.0
2,0,-3,1,-32,1,0,1,2025-02-24 12:31:42.812,2.0
7,2,-1,-2,-32,-2,-2,1,2025-02-24 12:31:42.821,2.0
2,-4,-1,-2,-33,-2,1,-2,2025-02-24 12:31:42.832,2.0
6,-1,-1,-2,-33,-3,-2,2,2025-02-24 12:31:42.844,2.0
3,-1,-2,-2,-37,-4,3,-1,2025-02-24 12:31:42.856,2.0
-6,0,2,-1,-39,-3,-2,-6,2025-02-24 12:31:42.867,2.0
-9,-3,-2,0,-11,0,17,-1,2025-02-24 12:31:42.878,2.0
1,1,3,-3,-7,-1,5,2,2025-02-24 12:31:42.889,2.0
1,1,3,-3,-7,-1,5,2,2025-02-24 12:31:42.900,2.0
0,2,-2,6,0,1,-6,0,2025-02-24 12:31:42.911,2.0
0,2,-2,6,0,1,-6,0,2025-02-24 12:31:42.923,2.0
-15,-1,0,-4,-7,-4,-12,-4,2025-02-24 12:31:42.933,2.0
-15,-1,0,-4,-7,-4,-12,-4,2025-02-24 12:31:42.947,2.0
-11,-2,1,1,0,1,-11,-1,2025-02-24 12:31:42.956,2.0
-11,-2,1,1,0,1,-11,-1,2025-02-24 12:31:42.966,2.0
6,0,-3,-3,-37,-1,1,3,2025-02-24 12:31:42.978,2.0
-1,-1,0,-2,-36,-1,7,-1,2025-02-24 12:31:42.989,2.0
12,-1,-1,-3,-27,-1,6,-3,2025-02-24 12:31:43.000,2.0
-13,-1,-1,-1,-19,-3,4,-3,2025-02-24 12:31:43.011,2.0
-13,-1,-1,-1,-19,-3,4,-3,2025-02-24 12:31:43.023,2.0
4,-2,-1,-3,-19,-1,-3,-1,2025-02-24 12:31:43.034,2.0
-1,4,0,3,-20,-2,0,1,2025-02-24 12:31:43.045,2.0
-21,-10,-3,-1,-22,0,-8,-6,2025-02-24 12:31:43.057,2.0
4,0,0,-4,-30,-3,-6,1,2025-02-24 12:31:43.068,2.0
8,2,-1,-1,-27,-1,3,-3,2025-02-24 12:31:43.079,2.0
8,2,-1,-1,-27,-1,3,-3,2025-02-24 12:31:43.090,2.0
10,-1,-1,-1,-26,-1,-2,2,2025-02-24 12:31:43.101,2.0
3,3,0,-1,-19,-1,-7,0,2025-02-24 12:31:43.113,2.0
3,3,0,-1,-19,-1,-7,0,2025-02-24 12:31:43.123,2.0
4,-2,1,3,-15,-1,10,1,2025-02-24 12:31:43.134,2.0
4,-2,1,3,-15,-1,10,1,2025-02-24 12:31:43.146,2.0
4,1,1,-1,-17,3,-8,2,2025-02-24 12:31:43.157,2.0
6,0,-3,-1,-12,-1,-6,-3,2025-02-24 12:31:43.168,2.0
11,1,1,0,-9,0,-2,2,2025-02-24 12:31:43.179,2.0
11,1,1,0,-9,0,-2,2,2025-02-24 12:31:43.191,2.0
-5,-1,-1,-2,-17,-4,0,-7,2025-02-24 12:31:43.202,2.0
0,0,-1,-4,-18,-1,-32,0,2025-02-24 12:31:43.213,2.0
-5,-1,-2,-2,-19,-2,-4,-2,2025-02-24 12:31:43.224,2.0
1,-2,-3,-2,-18,0,11,2,2025-02-24 12:31:43.235,2.0
1,-2,-3,-2,-18,0,11,2,2025-02-24 12:31:43.246,2.0
-5,-1,-2,-1,-18,2,38,2,2025-02-24 12:31:43.258,2.0
-5,-1,-2,-1,-18,2,38,2,2025-02-24 12:31:43.269,2.0
2,-5,-1,-3,-21,1,1,-5,2025-02-24 12:31:43.280,2.0
7,-1,-2,3,-8,-4,-38,2,2025-02-24 12:31:43.291,2.0
-1,1,-1,2,-16,0,8,2,2025-02-24 12:31:43.302,2.0
-1,1,-1,2,-16,0,8,2,2025-02-24 12:31:43.313,2.0
6,-1,0,-1,-24,-2,2,-1,2025-02-24 12:31:43.324,2.0
-4,1,-1,0,-18,0,3,-2,2025-02-24 12:31:43.335,2.0
5,1,1,1,-18,1,-2,2,2025-02-24 12:31:43.347,2.0
6,6,-1,-2,-20,-5,-14,1,2025-02-24 12:31:43.358,2.0
10,-5,1,14,-38,-1,0,5,2025-02-24 12:31:43.369,2.0
10,-5,1,14,-38,-1,0,5,2025-02-24 12:31:43.380,2.0
-3,-5,-1,5,-27,-4,3,-5,2025-02-24 12:31:43.391,2.0
-3,-5,-1,5,-27,-4,3,-5,2025-02-24 12:31:43.404,2.0
-4,-6,-2,16,-27,4,-6,-5,2025-02-24 12:31:43.416,2.0
-6,-7,1,-22,54,17,0,6,2025-02-24 12:31:43.428,2.0
-3,16,0,-7,-24,-12,14,-1,2025-02-24 12:31:43.440,2.0
5,9,-6,-37,-41,-1,12,-1,2025-02-24 12:31:43.452,2.0
5,9,-6,-37,-41,-1,12,-1,2025-02-24 12:31:43.464,2.0
-2,-20,-4,9,-9,-2,14,-2,2025-02-24 12:31:43.475,2.0
-2,-20,-4,9,-9,-2,14,-2,2025-02-24 12:31:43.486,2.0
-2,-25,-9,-7,-15,-9,6,1,2025-02-24 12:31:43.496,2.0
-2,-25,-9,-7,-15,-9,6,1,2025-02-24 12:31:43.508,2.0
-15,5,0,7,1,3,-6,1,2025-02-24 12:31:43.519,2.0
-3,13,6,6,-5,1,-2,-2,2025-02-24 12:31:43.530,2.0
-4,-47,-5,-15,-11,5,-29,-4,2025-02-24 12:31:43.541,2.0
20,30,3,0,-4,-5,-39,-2,2025-02-24 12:31:43.553,2.0
20,30,3,0,-4,-5,-39,-2,2025-02-24 12:31:43.564,2.0
9,25,4,9,-20,-2,3,-1,2025-02-24 12:31:43.575,2.0
-8,20,0,-6,-16,-8,2,-1,2025-02-24 12:31:43.586,2.0
2,72,10,7,-22,1,3,0,2025-02-24 12:31:43.597,2.0
-1,28,-6,14,-4,0,5,2,2025-02-24 12:31:43.608,2.0
-7,10,-1,-21,-34,-7,10,-2,2025-02-24 12:31:43.619,2.0
-7,10,-1,-21,-34,-7,10,-2,2025-02-24 12:31:43.631,2.0
-13,0,6,-5,-31,-8,1,0,2025-02-24 12:31:43.643,2.0
-13,0,6,-5,-31,-8,1,0,2025-02-24 12:31:43.654,2.0
11,-23,4,13,-12,5,27,-1,2025-02-24 12:31:43.665,2.0
12,31,7,-4,-21,2,14,3,2025-02-24 12:31:43.676,2.0
1,5,-6,0,-15,4,13,0,2025-02-24 12:31:43.687,2.0
7,-38,-4,9,-18,-3,6,-2,2025-02-24 12:31:43.697,2.0
7,-38,-4,9,-18,-3,6,-2,2025-02-24 12:31:43.708,2.0
5,3,-11,-11,-22,-2,25,0,2025-02-24 12:31:43.720,2.0
5,3,-11,-11,-22,-2,25,0,2025-02-24 12:31:43.731,2.0
1,-24,-2,2,-13,7,5,2,2025-02-24 12:31:43.742,2.0
-1,-20,-5,-9,-26,-3,-1,-3,2025-02-24 12:31:43.755,2.0
-10,3,0,3,-19,2,-13,0,2025-02-24 12:31:43.765,2.0
-1,50,-5,-5,-21,-2,-17,-2,2025-02-24 12:31:43.776,2.0
0,-12,-1,-1,-19,0,4,1,2025-02-24 12:31:43.787,2.0
-11,14,1,-4,-16,-1,-5,-3,2025-02-24 12:31:43.799,2.0
-5,6,4,0,-20,0,0,2,2025-02-24 12:31:43.810,2.0
4,4,-5,0,-17,-2,-11,-5,2025-02-24 12:31:43.821,2.0
4,0,-2,0,-15,2,15,0,2025-02-24 12:31:43.832,2.0
-13,46,-7,-6,-24,-6,4,-2,2025-02-24 12:31:43.844,2.0
-7,-8,4,-2,-23,3,10,-3,2025-02-24 12:31:43.855,2.0
5,0,-2,3,-10,7,9,4,2025-02-24 12:31:43.866,2.0
-16,12,-2,-3,-26,-8,-1,-8,2025-02-24 12:31:43.877,2.0
22,8,2,11,-7,12,-11,-1,2025-02-24 12:31:43.887,2.0
-1,-14,0,-8,-26,-1,14,-2,2025-02-24 12:31:43.899,2.0
-1,-14,0,-8,-26,-1,14,-2,2025-02-24 12:31:43.911,2.0
0,-22,-1,3,-17,-3,-1,2,2025-02-24 12:31:43.921,2.0
-11,-39,-1,-3,-14,6,4,-1,2025-02-24 12:31:43.933,2.0
-17,-13,-6,-6,-29,6,-11,-4,2025-02-24 12:31:43.944,2.0
-8,0,-3,-6,-21,-3,-12,-6,2025-02-24 12:31:43.957,2.0
-8,0,-3,-6,-21,-3,-12,-6,2025-02-24 12:31:43.966,2.0
10,-25,0,-3,-29,-12,-8,0,2025-02-24 12:31:43.977,2.0
-1,5,8,-7,-13,26,-17,-5,2025-02-24 12:31:43.989,2.0
12,28,-4,-3,-12,7,-22,2,2025-02-24 12:31:43.999,2.0
12,28,-4,-3,-12,7,-22,2,2025-02-24 12:31:44.011,2.0
-8,-11,0,9,-15,-8,9,-3,2025-02-24 12:31:44.022,2.0
-8,-11,0,9,-15,-8,9,-3,2025-02-24 12:31:44.033,2.0
-17,-25,2,-8,-22,-5,1,-2,2025-02-24 12:31:44.044,2.0
15,21,-22,-14,-21,-3,7,-1,2025-02-24 12:31:44.055,2.0
12,5,1,1,-23,-6,-5,0,2025-02-24 12:31:44.067,2.0
9,29,12,-5,-21,-3,2,3,2025-02-24 12:31:44.078,2.0
-11,-34,-5,1,-16,3,11,1,2025-02-24 12:31:44.089,2.0
-13,-7,1,-3,-19,-2,1,-6,2025-02-24 12:31:44.100,2.0
2,-1,12,-2,-22,5,9,-6,2025-02-24 12:31:44.111,2.0
2,-1,12,-2,-22,5,9,-6,2025-02-24 12:31:44.122,2.0
2,17,3,0,-17,18,-10,11,2025-02-24 12:31:44.133,2.0
2,17,3,0,-17,18,-10,11,2025-02-24 12:31:44.144,2.0
-5,1,-6,0,-18,-1,-6,-13,2025-02-24 12:31:44.157,2.0
1,-3,-15,-5,-23,-9,-5,-10,2025-02-24 12:31:44.167,2.0
3,8,1,4,-13,3,5,4,2025-02-24 12:31:44.178,2.0
3,8,1,4,-13,3,5,4,2025-02-24 12:31:44.189,2.0
-6,-3,6,0,-21,-4,-49,3,2025-02-24 12:31:44.201,2.0
-6,-3,6,0,-21,-4,-49,3,2025-02-24 12:31:44.213,2.0
2,6,3,-1,-20,-11,9,-6,2025-02-24 12:31:44.224,2.0
2,6,3,-1,-20,-11,9,-6,2025-02-24 12:31:44.235,2.0
-2,2,-8,-5,-18,2,4,-7,2025-02-24 12:31:44.245,2.0
-2,17,4,1,-19,-1,4,6,2025-02-24 12:31:44.257,2.0
-2,17,4,1,-19,-1,4,6,2025-02-24 12:31:44.268,2.0
2,-5,7,2,-18,23,35,3,2025-02-24 12:31:44.279,2.0
2,-5,7,2,-18,23,35,3,2025-02-24 12:31:44.290,2.0
0,2,0,-6,-23,-25,17,-2,2025-02-24 12:31:44.301,2.0
0,2,0,-6,-23,-25,17,-2,2025-02-24 12:31:44.312,2.0
-27,-14,-12,3,-12,12,7,-8,2025-02-24 12:31:44.324,2.0
3,7,6,0,-23,-44,-19,-2,2025-02-24 12:31:44.335,2.0
3,7,6,0,-23,-44,-19,-2,2025-02-24 12:31:44.346,2.0
18,6,5,-3,-15,25,11,3,2025-02-24 12:31:44.359,2.0
1,-3,3,2,-23,-49,-57,-5,2025-02-24 12:31:44.368,2.0
1,-3,3,2,-23,-49,-57,-5,2025-02-24 12:31:44.380,2.0
5,2,14,-1,-8,-3,-6,-6,2025-02-24 12:31:44.391,2.0
2,-4,7,-3,-22,-7,-8,3,2025-02-24 12:31:44.402,2.0
2,-4,7,-3,-22,-7,-8,3,2025-02-24 12:31:44.413,2.0
-5,-6,-13,2,-18,5,0,5,2025-02-24 12:31:44.424,2.0
-5,-6,-13,2,-18,5,0,5,2025-02-24 12:31:44.435,2.0
-5,-2,7,4,-19,-68,-23,-5,2025-02-24 12:31:44.447,2.0
10,9,-8,4,2,31,43,2,2025-02-24 12:31:44.458,2.0
-8,-4,-6,-2,-13,-44,-39,-13,2025-02-24 12:31:44.469,2.0
-8,-4,-6,-2,-13,-44,-39,-13,2025-02-24 12:31:44.480,2.0
17,17,-10,8,9,87,91,42,2025-02-24 12:31:44.502,2.0
-1,-20,-21,-2,-11,26,14,-1,2025-02-24 12:31:44.510,2.0
-6,5,3,-1,-17,41,-11,-3,2025-02-24 12:31:44.514,2.0
-6,5,3,-1,-17,41,-11,-3,2025-02-24 12:31:44.522,2.0
-6,5,3,-1,-17,41,-11,-3,2025-02-24 12:31:44.533,2.0
-6,5,3,-1,-17,41,-11,-3,2025-02-24 12:31:44.544,2.0
-6,5,3,-1,-17,41,-11,-3,2025-02-24 12:31:44.556,2.0
14,-5,-5,0,-22,-30,-16,-3,2025-02-24 12:31:44.568,2.0
-8,-2,-1,10,-18,12,20,-2,2025-02-24 12:31:44.578,2.0
-8,-2,-1,10,-18,12,20,-2,2025-02-24 12:31:44.589,2.0
1,16,17,-7,-23,6,8,-7,2025-02-24 12:31:44.600,2.0
-1,-7,-12,-6,-19,21,3,5,2025-02-24 12:31:44.611,2.0
-2,-1,-14,-3,-18,12,10,17,2025-02-24 12:31:44.622,2.0
-2,-1,-14,-3,-18,12,10,17,2025-02-24 12:31:44.633,2.0
-12,-21,13,2,-25,21,14,21,2025-02-24 12:31:44.645,2.0
-7,11,3,1,-17,-8,-8,-9,2025-02-24 12:31:44.656,2.0
8,48,-17,-4,-6,-2,-11,-33,2025-02-24 12:31:44.667,2.0
-1,-4,-8,-6,-23,-18,-3,-5,2025-02-24 12:31:44.678,2.0
-1,-4,-8,-6,-23,-18,-3,-5,2025-02-24 12:31:44.689,2.0
-1,-4,-8,-6,-23,-18,-3,-5,2025-02-24 12:31:44.700,2.0
-2,2,17,2,-27,-1,-22,-1,2025-02-24 12:31:44.711,2.0
-3,-13,-27,-7,-21,7,7,2,2025-02-24 12:31:44.723,2.0
-1,-15,-12,-2,-15,1,1,-7,2025-02-24 12:31:44.734,2.0
-1,-15,-12,-2,-15,1,1,-7,2025-02-24 12:31:44.745,2.0
0,-5,-15,0,-32,-5,-3,6,2025-02-24 12:31:44.757,2.0
-2,-6,3,0,-14,-20,-7,1,2025-02-24 12:31:44.768,2.0
-1,-4,9,2,-18,-6,2,-2,2025-02-24 12:31:44.778,2.0
-1,-4,9,2,-18,-6,2,-2,2025-02-24 12:31:44.790,2.0
-1,-2,-8,-1,-17,6,2,-2,2025-02-24 12:31:44.801,2.0
-1,-2,-8,-1,-17,6,2,-2,2025-02-24 12:31:44.813,2.0
2,0,5,14,-8,58,39,4,2025-02-24 12:31:44.824,2.0
2,0,5,14,-8,58,39,4,2025-02-24 12:31:44.835,2.0
-4,-1,0,-7,-22,-27,-15,-10,2025-02-24 12:31:44.846,2.0
-1,-1,-3,-2,-18,14,-1,1,2025-02-24 12:31:44.857,2.0
-1,-1,-3,-2,-18,14,-1,1,2025-02-24 12:31:44.868,2.0
0,-4,-4,-3,-16,-7,-1,-3,2025-02-24 12:31:44.879,2.0
0,-4,-4,-3,-16,-7,-1,-3,2025-02-24 12:31:44.891,2.0
-2,0,-7,0,-20,-10,-6,-5,2025-02-24 12:31:44.903,2.0
-2,6,0,-2,-21,-9,-10,0,2025-02-24 12:31:44.914,2.0
-2,6,0,-2,-21,-9,-10,0,2025-02-24 12:31:44.926,2.0
0,0,-4,-2,-18,6,-2,-9,2025-02-24 12:31:44.936,2.0
0,0,-4,-2,-18,6,-2,-9,2025-02-24 12:31:44.953,2.0
-2,-4,-4,1,-19,1,-1,-1,2025-02-24 12:31:44.958,2.0
-2,-4,-4,1,-19,1,-1,-1,2025-02-24 12:31:44.968,2.0
-4,-7,-16,-5,-15,-16,-9,3,2025-02-24 12:31:44.978,2.0
-4,-7,-16,-5,-15,-16,-9,3,2025-02-24 12:31:44.989,2.0
0,0,-12,0,-20,-4,0,3,2025-02-24 12:31:45.001,2.0
0,0,-12,0,-20,-4,0,3,2025-02-24 12:31:45.012,2.0
1,4,3,1,-15,18,-2,6,2025-02-24 12:31:45.023,2.0
6,5,-8,-4,-18,-3,0,9,2025-02-24 12:31:45.034,2.0
-2,-1,5,-1,-18,18,5,0,2025-02-24 12:31:45.045,2.0
0,-5,13,-1,-27,25,0,-5,2025-02-24 12:31:45.057,2.0
0,-5,13,-1,-27,25,0,-5,2025-02-24 12:31:45.068,2.0
-2,-4,1,-4,-24,-17,-3,5,2025-02-24 12:31:45.079,2.0
-2,-4,1,-4,-24,-17,-3,5,2025-02-24 12:31:45.097,2.0
2,2,7,0,-19,-55,-17,-8,2025-02-24 12:31:45.102,2.0
2,2,7,0,-19,-55,-17,-8,2025-02-24 12:31:45.112,2.0
-5,3,-2,1,-15,1,19,-20,2025-02-24 12:31:45.123,2.0
-6,-7,-3,-2,-16,32,-26,8,2025-02-24 12:31:45.134,2.0
0,-3,12,-3,-15,-66,-46,-15,2025-02-24 12:31:45.145,2.0
0,0,3,6,-8,89,35,-10,2025-02-24 12:31:45.157,2.0
0,1,2,0,-22,-6,4,-7,2025-02-24 12:31:45.172,2.0
0,2,19,-1,-16,39,18,-2,2025-02-24 12:31:45.320,2.0
-4,-12,-3,-11,-10,-7,-8,2,2025-02-24 12:31:45.331,2.0
-2,-2,1,10,-11,-9,1,-1,2025-02-24 12:31:45.336,2.0
-2,-2,1,10,-11,-9,1,-1,2025-02-24 12:31:45.346,2.0
0,-3,1,4,-19,-6,-7,0,2025-02-24 12:31:45.357,2.0
0,-3,1,4,-19,-6,-7,0,2025-02-24 12:31:45.368,2.0
0,0,-1,2,-24,-10,-11,-3,2025-02-24 12:31:45.380,2.0
0,0,-1,2,-24,-10,-11,-3,2025-02-24 12:31:45.393,2.0
2,17,-9,9,-17,2,-2,0,2025-02-24 12:31:45.402,2.0
2,17,-9,9,-17,2,-2,0,2025-02-24 12:31:45.414,2.0
-2,8,-7,7,-14,-2,0,-2,2025-02-24 12:31:45.425,2.0
-2,8,-7,7,-14,-2,0,-2,2025-02-24 12:31:45.436,2.0
0,4,-3,-4,-16,-2,0,1,2025-02-24 12:31:45.447,2.0
0,4,-3,-4,-16,-2,0,1,2025-02-24 12:31:45.459,2.0
-1,6,-3,2,-16,2,-1,-2,2025-02-24 12:31:45.469,2.0
-1,4,-4,4,-17,-2,-2,0,2025-02-24 12:31:45.480,2.0
-1,4,-4,4,-17,-2,-2,0,2025-02-24 12:31:45.491,2.0
1,3,1,3,-16,1,0,0,2025-02-24 12:31:45.503,2.0
1,3,1,3,-16,1,0,0,2025-02-24 12:31:45.514,2.0
0,-2,0,-1,-14,-3,-2,-1,2025-02-24 12:31:45.525,2.0
-1,-1,-1,-6,-18,2,0,-1,2025-02-24 12:31:45.536,2.0
-1,-1,-1,-6,-18,2,0,-1,2025-02-24 12:31:45.547,2.0
-1,-1,-1,-6,-18,2,0,-1,2025-02-24 12:31:45.558,2.0
0,-1,-1,-3,-19,8,13,0,2025-02-24 12:31:45.569,2.0
-1,0,-1,2,-17,-3,0,0,2025-02-24 12:31:45.581,2.0
-1,-3,-1,-5,-24,-11,-12,-3,2025-02-24 12:31:45.593,2.0
-2,-5,-1,-4,-17,-1,-1,-1,2025-02-24 12:31:45.603,2.0
-2,-5,-1,-4,-17,-1,-1,-1,2025-02-24 12:31:45.614,2.0
-2,-6,1,1,-17,0,-3,-1,2025-02-24 12:31:45.625,2.0
-2,-6,1,1,-17,0,-3,-1,2025-02-24 12:31:45.637,2.0
-1,-6,2,-3,-21,-3,-5,-3,2025-02-24 12:31:45.648,2.0
-3,-4,3,6,-3,1,-1,-1,2025-02-24 12:31:45.659,2.0
-3,-4,3,6,-3,1,-1,-1,2025-02-24 12:31:45.670,2.0
-3,-4,3,6,-3,1,-1,-1,2025-02-24 12:31:45.681,2.0
-1,2,1,3,-19,0,0,-1,2025-02-24 12:31:45.693,2.0
0,-5,3,-4,-20,-2,0,0,2025-02-24 12:31:45.704,2.0
-1,3,-2,-4,-22,-2,-1,-2,2025-02-24 12:31:45.716,2.0
-1,-8,3,-1,-18,0,2,-1,2025-02-24 12:31:45.727,2.0
-2,-6,-1,-6,-24,-2,-3,-3,2025-02-24 12:31:45.739,2.0
-2,-6,-1,-6,-24,-2,-3,-3,2025-02-24 12:31:45.750,2.0
-2,-6,-1,-6,-24,-2,-3,-3,2025-02-24 12:31:45.761,2.0
-1,-5,-4,-5,-18,-5,-3,-2,2025-02-24 12:31:45.773,2.0
0,-2,-3,-5,-20,-2,1,1,2025-02-24 12:31:45.784,2.0
0,-2,-3,-5,-20,-2,1,1,2025-02-24 12:31:45.798,2.0
1,-3,2,8,-18,2,2,2,2025-02-24 12:31:45.807,2.0
1,-3,2,8,-18,2,2,2,2025-02-24 12:31:45.818,2.0
0,-2,0,-7,-23,-3,-1,-2,2025-02-24 12:31:45.830,2.0
-2,-5,-6,-7,-27,-9,-4,-2,2025-02-24 12:31:45.842,2.0
-2,-5,-6,-7,-27,-9,-4,-2,2025-02-24 12:31:45.853,2.0
-2,-1,0,0,-19,-1,1,-1,2025-02-24 12:31:45.864,2.0
-2,-1,0,0,-19,-1,1,-1,2025-02-24 12:31:45.875,2.0
-2,-2,-4,-6,-21,-4,-5,0,2025-02-24 12:31:45.886,2.0
0,0,-1,0,-19,0,2,0,2025-02-24 12:31:45.898,2.0
0,0,-1,0,-19,0,2,0,2025-02-24 12:31:45.909,2.0
-2,-3,-1,0,-29,-1,-3,-3,2025-02-24 12:31:45.920,2.0
-2,-3,-1,0,-29,-1,-3,-3,2025-02-24 12:31:45.932,2.0
-1,0,1,4,-15,1,-3,-1,2025-02-24 12:31:45.943,2.0
-1,0,1,4,-15,1,-3,-1,2025-02-24 12:31:45.954,2.0
0,-1,1,-4,-17,-4,-1,-1,2025-02-24 12:31:45.965,2.0
-2,1,1,0,-17,2,0,-1,2025-02-24 12:31:45.976,2.0
-5,-1,-2,-1,-12,1,-1,-1,2025-02-24 12:31:45.988,2.0
-5,-1,-2,-1,-12,1,-1,-1,2025-02-24 12:31:46.000,2.0
0,-2,-3,-5,-15,0,-3,0,2025-02-24 12:31:46.010,2.0
0,-1,0,5,-16,0,0,-1,2025-02-24 12:31:46.021,2.0
-3,-2,-2,-1,-14,-1,0,-2,2025-02-24 12:31:46.033,2.0
-3,-2,-2,-1,-14,-1,0,-2,2025-02-24 12:31:46.044,2.0
1,0,-7,-4,-17,0,-2,-1,2025-02-24 12:31:46.055,2.0
0,0,-1,-1,-17,-1,-1,0,2025-02-24 12:31:46.066,2.0
-1,-1,1,1,-18,0,-2,-2,2025-02-24 12:31:46.077,2.0
-1,-2,-3,-2,-18,-3,-1,-1,2025-02-24 12:31:46.089,2.0
0,0,10,-2,-41,0,-3,1,2025-02-24 12:31:46.100,2.0
0,0,10,-2,-41,0,-3,1,2025-02-24 12:31:46.111,2.0
0,-2,-1,-1,-38,0,-2,-1,2025-02-24 12:31:46.122,2.0
0,-2,-1,-1,-38,0,-2,-1,2025-02-24 12:31:46.134,2.0
0,-1,-1,0,-38,-11,-25,-4,2025-02-24 12:31:46.145,2.0
0,-1,-1,0,-38,-11,-25,-4,2025-02-24 12:31:46.156,2.0
0,-2,-8,-1,-26,-10,-9,1,2025-02-24 12:31:46.167,2.0
0,-2,-8,-1,-26,-10,-9,1,2025-02-24 12:31:46.178,2.0
-2,-4,1,-4,-39,1,-3,-2,2025-02-24 12:31:46.189,2.0
-2,0,2,-2,-29,2,2,0,2025-02-24 12:31:46.202,2.0
-2,-2,-12,0,-25,5,10,0,2025-02-24 12:31:46.211,2.0
-2,0,3,0,-8,1,3,-1,2025-02-24 12:31:46.222,2.0
-2,0,3,0,-8,1,3,-1,2025-02-24 12:31:46.234,2.0
0,-1,-3,6,-5,21,21,1,2025-02-24 12:31:46.245,2.0
-1,0,1,-1,-26,-4,-3,-2,2025-02-24 12:31:46.256,2.0
-2,-1,-3,-6,-22,-11,-10,-2,2025-02-24 12:31:46.268,2.0
-1,-1,-6,1,-8,-3,-3,-1,2025-02-24 12:31:46.280,2.0
-1,-1,-6,1,-8,-3,-3,-1,2025-02-24 12:31:46.290,2.0
-1,0,2,-2,-12,1,2,-1,2025-02-24 12:31:46.301,2.0
-1,0,2,-2,-12,1,2,-1,2025-02-24 12:31:46.312,2.0
1,-1,-2,-3,-10,0,-1,-2,2025-02-24 12:31:46.323,2.0
1,-1,-2,-3,-10,0,-1,-2,2025-02-24 12:31:46.334,2.0
0,0,-1,0,-7,-2,1,0,2025-02-24 12:31:46.345,2.0
0,0,-1,0,-7,-2,1,0,2025-02-24 12:31:46.357,2.0
-3,-2,0,-4,-14,-3,-2,-4,2025-02-24 12:31:46.368,2.0
-3,-2,0,-4,-14,-3,-2,-4,2025-02-24 12:31:46.379,2.0
0,-1,1,0,-9,-17,-8,-1,2025-02-24 12:31:46.391,2.0
0,-3,1,1,-6,23,11,1,2025-02-24 12:31:46.403,2.0
0,-2,-2,-2,-11,4,-1,0,2025-02-24 12:31:46.413,2.0
-3,-1,-2,-3,-31,-4,-3,-3,2025-02-24 12:31:46.425,2.0
-3,-1,-2,-3,-31,-4,-3,-3,2025-02-24 12:31:46.434,2.0
-1,-2,1,2,-20,1,2,-2,2025-02-24 12:31:46.445,2.0
-2,-3,-4,-3,-23,-3,-6,-1,2025-02-24 12:31:46.457,2.0
0,-2,-1,-4,-16,2,2,-2,2025-02-24 12:31:46.468,2.0
0,-2,-1,-4,-16,2,2,-2,2025-02-24 12:31:46.479,2.0
-1,1,-2,-1,-8,2,1,0,2025-02-24 12:31:46.491,2.0
-1,1,-2,-1,-8,2,1,0,2025-02-24 12:31:46.502,2.0
1,-1,1,2,-4,2,3,1,2025-02-24 12:31:46.513,2.0
0,1,0,-1,-10,-4,-5,-2,2025-02-24 12:31:46.524,2.0
-3,-2,-1,0,-7,0,-1,2,2025-02-24 12:31:46.536,2.0
0,1,0,-3,-9,-2,0,-1,2025-02-24 12:31:46.547,2.0
3,3,-1,-2,-9,-2,-2,-1,2025-02-24 12:31:46.558,2.0
0,-1,2,0,-8,2,0,-1,2025-02-24 12:31:46.569,2.0
-2,-2,-4,-5,-38,-4,-4,-1,2025-02-24 12:31:46.581,2.0
-2,-2,-4,-5,-38,-4,-4,-1,2025-02-24 12:31:46.592,2.0
-2,-2,-4,-5,-38,-4,-4,-1,2025-02-24 12:31:46.604,2.0
-2,-2,-2,0,-36,-11,-12,-2,2025-02-24 12:31:46.614,2.0
1,-2,-1,0,-30,4,4,2,2025-02-24 12:31:46.624,2.0
1,-2,-1,0,-30,4,4,2,2025-02-24 12:31:46.635,2.0
-3,-2,-2,-2,-31,-1,-6,-2,2025-02-24 12:31:46.647,2.0
-3,-3,-2,-2,-12,-9,-11,-8,2025-02-24 12:31:46.658,2.0
-2,-2,0,-1,-3,-1,4,2,2025-02-24 12:31:46.669,2.0
-2,-2,0,-1,-3,-1,4,2,2025-02-24 12:31:46.680,2.0
-3,0,-1,2,-4,25,14,-1,2025-02-24 12:31:46.692,2.0
-3,0,-1,2,-4,25,14,-1,2025-02-24 12:31:46.702,2.0
-2,-2,-1,-3,-49,-21,-15,-1,2025-02-24 12:31:46.714,2.0
1,-2,-1,-3,-23,5,16,3,2025-02-24 12:31:46.725,2.0
-1,-1,-2,-2,-22,-16,-2,-3,2025-02-24 12:31:46.736,2.0
-1,0,0,-1,-13,0,-8,1,2025-02-24 12:31:46.747,2.0
-1,-1,-1,-1,-8,-2,-9,-1,2025-02-24 12:31:46.759,2.0
-2,-1,0,-2,-11,-5,-3,-2,2025-02-24 12:31:46.770,2.0
-3,-1,0,0,-5,12,6,-2,2025-02-24 12:31:46.781,2.0
1,-2,-2,0,-11,-3,-7,-2,2025-02-24 12:31:46.792,2.0
-2,-1,-1,-2,-6,-3,-3,-4,2025-02-24 12:31:46.805,2.0
0,1,-2,0,-6,-2,1,-4,2025-02-24 12:31:46.815,2.0
0,-1,-3,-4,-13,-1,-2,0,2025-02-24 12:31:46.826,2.0
0,-1,-3,-4,-13,-1,-2,0,2025-02-24 12:31:46.837,2.0
-2,-1,-2,-3,-10,1,1,-1,2025-02-24 12:31:46.848,2.0
-2,-1,-2,-3,-10,1,1,-1,2025-02-24 12:31:46.859,2.0
-1,-1,1,5,-9,-3,-1,-1,2025-02-24 12:31:46.870,2.0
-2,0,-4,-6,-13,-2,-3,-2,2025-02-24 12:31:46.881,2.0
-1,-1,-2,1,-11,-1,-10,-1,2025-02-24 12:31:46.893,2.0
0,0,-2,-4,-13,-3,-4,-1,2025-02-24 12:31:46.904,2.0
0,0,-2,-4,-13,-3,-4,-1,2025-02-24 12:31:46.915,2.0
-3,-4,-2,0,-9,-1,0,-1,2025-02-24 12:31:46.926,2.0
0,-1,-1,0,-7,-2,0,-2,2025-02-24 12:31:46.937,2.0
0,-2,2,3,-5,0,3,0,2025-02-24 12:31:46.948,2.0
-2,0,-2,-1,-8,-1,-2,-1,2025-02-24 12:31:46.960,2.0
0,0,-2,-2,-9,-3,1,-1,2025-02-24 12:31:46.971,2.0
-1,0,0,-3,-10,-2,-2,-1,2025-02-24 12:31:46.982,2.0
-1,0,0,-3,-10,-2,-2,-1,2025-02-24 12:31:46.993,2.0
-1,0,0,3,-3,1,1,0,2025-02-24 12:31:47.006,2.0
-1,-1,0,-3,-10,-2,-1,-1,2025-02-24 12:31:47.016,2.0
-1,-1,0,-3,-10,-2,-1,-1,2025-02-24 12:31:47.027,2.0
-1,-3,0,0,-8,-1,0,-1,2025-02-24 12:31:47.038,2.0
-1,-1,2,-2,-9,0,-1,0,2025-02-24 12:31:47.050,2.0
-2,1,-2,0,-8,0,-2,1,2025-02-24 12:31:47.061,2.0
-3,-3,-2,-2,-7,1,1,-3,2025-02-24 12:31:47.071,2.0
0,1,-4,-1,-10,-1,-1,-1,2025-02-24 12:31:47.083,2.0
-2,-4,-2,-1,-7,-2,1,-1,2025-02-24 12:31:47.095,2.0
0,-5,0,0,-9,-2,-1,-1,2025-02-24 12:31:47.105,2.0
-1,-1,-3,-2,-10,-3,-3,-1,2025-02-24 12:31:47.116,2.0
-1,-2,1,-3,-10,-2,-2,-1,2025-02-24 12:31:47.127,2.0
-1,-2,1,-3,-10,-2,-2,-1,2025-02-24 12:31:47.138,2.0
1,-1,1,-3,-11,0,-1,-1,2025-02-24 12:31:47.149,2.0
1,-1,1,-3,-11,0,-1,-1,2025-02-24 12:31:47.161,2.0
-1,-3,-1,-2,-8,-1,0,-2,2025-02-24 12:31:47.172,2.0
-2,-1,-2,-1,-10,0,-3,-1,2025-02-24 12:31:47.183,2.0
0,0,0,-2,-8,0,0,0,2025-02-24 12:31:47.194,2.0
1,-3,-5,-2,-10,-3,-1,-2,2025-02-24 12:31:47.207,2.0
-1,-2,-1,-3,-13,-1,-2,-1,2025-02-24 12:31:47.216,2.0
-1,-2,1,-1,-15,-3,-2,0,2025-02-24 12:31:47.227,2.0
-2,3,-3,-1,-16,0,-5,0,2025-02-24 12:31:47.239,2.0
0,-2,0,-2,-15,-2,1,0,2025-02-24 12:31:47.250,2.0
-1,1,0,2,-13,-2,-1,-1,2025-02-24 12:31:47.261,2.0
-1,0,0,1,-10,1,-1,0,2025-02-24 12:31:47.272,2.0
-2,-3,-2,-2,-10,-2,1,-1,2025-02-24 12:31:47.283,2.0
-2,-3,-2,-2,-10,-2,1,-1,2025-02-24 12:31:47.295,2.0
-1,-1,-1,1,-8,-2,0,-1,2025-02-24 12:31:47.306,2.0
0,-3,1,-5,-10,-1,-1,-3,2025-02-24 12:31:47.318,2.0
-1,-1,-3,-2,-7,-1,-1,-1,2025-02-24 12:31:47.329,2.0
-1,-1,-3,-2,-7,-1,-1,-1,2025-02-24 12:31:47.340,2.0
-3,-3,1,-4,-7,-1,-3,-1,2025-02-24 12:31:47.351,2.0
-3,-3,1,-4,-7,-1,-3,-1,2025-02-24 12:31:47.362,2.0
-2,2,1,1,-7,3,0,1,2025-02-24 12:31:47.373,2.0
-1,-1,-1,-2,-11,-3,0,-1,2025-02-24 12:31:47.384,2.0
-1,-2,-1,-1,-9,-3,-1,-2,2025-02-24 12:31:47.395,2.0
-1,0,0,-1,-9,-1,0,0,2025-02-24 12:31:47.408,2.0
-1,0,0,-1,-9,-1,0,0,2025-02-24 12:31:47.418,2.0
-1,0,0,-1,-9,-1,0,0,2025-02-24 12:31:47.429,2.0
-1,3,0,2,-12,0,-2,-1,2025-02-24 12:31:47.440,2.0
-1,-3,-2,-1,-13,-3,-2,-1,2025-02-24 12:31:47.451,2.0
-1,-1,0,-2,-19,-3,-2,-2,2025-02-24 12:31:47.463,2.0
1,0,0,-2,-13,-3,-3,-1,2025-02-24 12:31:47.474,2.0
1,0,0,-2,-13,-3,-3,-1,2025-02-24 12:31:47.485,2.0
0,-1,0,-1,-13,-4,1,-2,2025-02-24 12:31:47.496,2.0
-2,0,-3,0,-15,1,0,0,2025-02-24 12:31:47.508,2.0
-1,-1,0,-3,-19,-1,0,-1,2025-02-24 12:31:47.518,2.0
0,-2,-4,0,-18,-3,0,0,2025-02-24 12:31:47.529,2.0
0,-2,-4,0,-18,-3,0,0,2025-02-24 12:31:47.541,2.0
0,1,1,-1,-17,-1,-3,-2,2025-02-24 12:31:47.552,2.0
1,3,1,1,-15,-4,-2,-1,2025-02-24 12:31:47.564,2.0
-1,-2,-3,-1,-17,1,-3,-2,2025-02-24 12:31:47.575,2.0
-4,-2,0,-1,-3,-1,-1,1,2025-02-24 12:31:47.586,2.0
-4,-2,0,-1,-3,-1,-1,1,2025-02-24 12:31:47.596,2.0
-2,-3,-3,-3,-5,-1,-2,0,2025-02-24 12:31:47.610,2.0
-2,0,-1,-2,-4,-3,-2,-1,2025-02-24 12:31:47.619,2.0
-1,-4,-3,-1,-1,0,0,-4,2025-02-24 12:31:47.630,2.0
-1,-4,-3,-1,-1,0,0,-4,2025-02-24 12:31:47.642,2.0
1,-2,1,0,-3,-1,-1,0,2025-02-24 12:31:47.652,2.0
1,-2,1,0,-3,-1,-1,0,2025-02-24 12:31:47.664,2.0
1,0,2,-1,-3,-1,0,1,2025-02-24 12:31:47.676,2.0
-1,-1,-1,-2,-4,-1,0,-2,2025-02-24 12:31:47.686,2.0
-2,-2,-1,-3,-3,0,0,0,2025-02-24 12:31:47.697,2.0
-4,-4,-4,-2,-5,-2,-1,-3,2025-02-24 12:31:47.709,2.0
-4,-4,-4,-2,-5,-2,-1,-3,2025-02-24 12:31:47.719,2.0
1,-1,-1,0,-5,0,-1,-1,2025-02-24 12:31:47.730,2.0
1,0,-2,-2,-4,-1,-3,0,2025-02-24 12:31:47.742,2.0
-3,0,-1,0,0,-2,-3,-1,2025-02-24 12:31:47.753,2.0
-3,0,-1,0,0,-2,-3,-1,2025-02-24 12:31:47.764,2.0
-2,0,-3,-3,-6,1,0,-2,2025-02-24 12:31:47.775,2.0
-3,-5,-2,-3,-2,0,-2,0,2025-02-24 12:31:47.786,2.0
-1,-2,0,0,-4,-1,0,-2,2025-02-24 12:31:47.798,2.0
0,0,-1,0,-2,-1,-1,-1,2025-02-24 12:31:47.810,2.0
0,0,-1,0,-2,-1,-1,-1,2025-02-24 12:31:47.819,2.0
-1,-1,0,0,-5,-2,-2,-2,2025-02-24 12:31:47.831,2.0
-1,-1,0,0,-5,-2,-2,-2,2025-02-24 12:31:47.842,2.0
-2,-1,-4,-1,-4,-1,-3,-1,2025-02-24 12:31:47.853,2.0
-4,-4,-3,-3,-4,-2,-2,0,2025-02-24 12:31:47.864,2.0
-1,-1,-3,-2,-6,-1,-1,0,2025-02-24 12:31:47.876,2.0
-1,-1,0,-2,-8,-1,-1,0,2025-02-24 12:31:47.887,2.0
-1,-1,0,-2,-8,-1,-1,0,2025-02-24 12:31:47.898,2.0
-2,-4,-1,-2,-10,-1,-1,-1,2025-02-24 12:31:47.909,2.0
1,-1,-1,0,-9,-1,0,-1,2025-02-24 12:31:47.921,2.0
-1,-3,-2,-1,-11,0,-1,-2,2025-02-24 12:31:47.932,2.0
-1,1,1,-1,-11,-1,0,-1,2025-02-24 12:31:47.943,2.0
0,-1,1,-2,-17,-2,-2,-1,2025-02-24 12:31:47.954,2.0
1,-2,-1,0,-18,0,0,-1,2025-02-24 12:31:47.966,2.0
-2,-3,-2,0,-20,-1,-3,-1,2025-02-24 12:31:47.977,2.0
0,1,-1,0,-20,0,1,0,2025-02-24 12:31:47.987,2.0
0,1,-1,0,-20,0,1,0,2025-02-24 12:31:47.998,2.0
0,0,-1,-1,-15,-1,0,-1,2025-02-24 12:31:48.011,2.0
0,0,-1,-1,-15,-1,0,-1,2025-02-24 12:31:48.021,2.0
-9,-19,-7,-5,-17,1,-1,-3,2025-02-24 12:31:48.033,2.0
-3,-4,-4,-2,-15,1,-3,-3,2025-02-24 12:31:48.043,2.0
3,6,1,-1,-13,-2,-2,1,2025-02-24 12:31:48.055,2.0
-2,-2,-1,0,-10,-1,0,1,2025-02-24 12:31:48.066,2.0
1,2,0,0,-8,-2,-1,-1,2025-02-24 12:31:48.077,2.0
-1,2,1,1,-10,-1,-1,-2,2025-02-24 12:31:48.088,2.0
-3,1,-1,-1,-9,-1,0,-3,2025-02-24 12:31:48.099,2.0
-1,-2,0,-1,-10,0,-1,0,2025-02-24 12:31:48.111,2.0
-1,-3,0,-2,-10,0,0,-1,2025-02-24 12:31:48.121,2.0
-4,-4,-2,-2,-11,-3,-2,-3,2025-02-24 12:31:48.132,2.0
-4,-4,-2,-2,-11,-3,-2,-3,2025-02-24 12:31:48.145,2.0
0,1,-1,1,-11,-1,0,-1,2025-02-24 12:31:48.155,2.0
-4,-2,-2,-1,-10,-3,-1,-1,2025-02-24 12:31:48.166,2.0
-2,-1,0,0,-10,-1,-1,-1,2025-02-24 12:31:48.177,2.0
-1,-2,0,-1,-9,-1,-1,0,2025-02-24 12:31:48.189,2.0
-1,-2,0,-1,-9,-1,-1,0,2025-02-24 12:31:48.200,2.0
1,2,-2,-2,-11,-1,-2,-1,2025-02-24 12:31:48.212,2.0
1,2,-2,-2,-11,-1,-2,-1,2025-02-24 12:31:48.222,2.0
-1,-1,1,0,-9,-1,-1,-2,2025-02-24 12:31:48.233,2.0
-1,-2,-2,-3,-10,-2,-1,0,2025-02-24 12:31:48.244,2.0
-1,-2,-2,-3,-10,-2,-1,0,2025-02-24 12:31:48.256,2.0
-1,-1,-3,-2,-9,0,-2,-1,2025-02-24 12:31:48.266,2.0
-1,-1,-3,-2,-9,0,-2,-1,2025-02-24 12:31:48.278,2.0
-1,-2,-1,-2,-10,1,1,0,2025-02-24 12:31:48.289,2.0
-1,-2,-1,-2,-10,1,1,0,2025-02-24 12:31:48.300,2.0
0,0,-1,-2,-10,-3,0,-2,2025-02-24 12:31:48.312,2.0
0,0,-1,-2,-10,-3,0,-2,2025-02-24 12:31:48.322,2.0
-5,-5,-6,-1,-10,-1,-2,-3,2025-02-24 12:31:48.334,2.0
-5,-5,-6,-1,-10,-1,-2,-3,2025-02-24 12:31:48.345,2.0
-1,-3,-1,-2,-6,0,-2,-2,2025-02-24 12:31:48.356,2.0
-3,-6,-6,-3,-6,-1,-1,-1,2025-02-24 12:31:48.367,2.0
0,2,1,0,-6,-1,-3,1,2025-02-24 12:31:48.379,2.0
-3,-3,-6,-4,-5,-1,-1,-1,2025-02-24 12:31:48.390,2.0
-3,-3,-6,-4,-5,-1,-1,-1,2025-02-24 12:31:48.401,2.0
-2,0,1,1,-7,-1,0,-2,2025-02-24 12:31:48.414,2.0
-4,-4,-3,-4,-10,-2,-2,-1,2025-02-24 12:31:48.424,2.0
-1,-2,-1,1,-10,-1,-1,0,2025-02-24 12:31:48.434,2.0
2,3,3,3,-8,0,0,-2,2025-02-24 12:31:48.446,2.0
0,1,0,0,-9,-1,-2,-1,2025-02-24 12:31:48.457,2.0
0,0,-1,1,-10,0,-2,-2,2025-02-24 12:31:48.468,2.0
-2,-2,1,-1,-8,-2,-1,-1,2025-02-24 12:31:48.479,2.0
0,0,2,0,-7,0,-1,-1,2025-02-24 12:31:48.491,2.0
0,0,2,0,-7,0,-1,-1,2025-02-24 12:31:48.502,2.0
1,1,-1,0,-4,-1,0,0,2025-02-24 12:31:48.513,2.0
1,1,-1,0,-4,-1,0,0,2025-02-24 12:31:48.525,2.0
-1,-3,-3,-3,-5,0,1,-2,2025-02-24 12:31:48.535,2.0
-2,-2,-1,-3,-4,-1,-2,0,2025-02-24 12:31:48.547,2.0
0,0,-1,0,-4,-1,-1,-3,2025-02-24 12:31:48.558,2.0
-6,-7,-5,-3,-4,-1,-2,-3,2025-02-24 12:31:48.569,2.0
-6,-7,-5,-3,-4,-1,-2,-3,2025-02-24 12:31:48.580,2.0
-2,-1,1,1,-7,-5,-2,0,2025-02-24 12:31:48.590,2.0
-1,-4,-4,-1,-6,0,-2,-1,2025-02-24 12:31:48.601,2.0
-2,-1,-2,-1,-4,0,0,-1,2025-02-24 12:31:48.615,2.0
-1,1,0,0,-3,-1,-1,1,2025-02-24 12:31:48.625,2.0
0,-3,-1,0,-5,-2,-1,-1,2025-02-24 12:31:48.635,2.0
-3,-2,-2,-3,-3,-2,-2,-2,2025-02-24 12:31:48.647,2.0
-1,0,-1,-1,-3,-1,1,-3,2025-02-24 12:31:48.658,2.0
-4,-4,-4,-1,-7,-2,-1,-2,2025-02-24 12:31:48.669,2.0
-4,-4,-4,-1,-7,-2,-1,-2,2025-02-24 12:31:48.680,2.0
1,2,0,-1,-5,1,-1,1,2025-02-24 12:31:48.692,2.0
1,2,0,-1,-5,1,-1,1,2025-02-24 12:31:48.703,2.0
1,2,0,-1,-5,1,-1,1,2025-02-24 12:31:48.714,2.0
-1,-1,-4,-2,-5,-1,-2,1,2025-02-24 12:31:48.725,2.0
0,1,1,-2,-7,0,-1,1,2025-02-24 12:31:48.736,2.0
1,1,2,-2,-3,-2,0,-2,2025-02-24 12:31:48.747,2.0
1,1,2,-2,-3,-2,0,-2,2025-02-24 12:31:48.773,2.0
-2,-2,-4,-3,-5,-1,-1,-2,2025-02-24 12:31:48.778,2.0
-2,-2,-4,-3,-5,-1,-1,-2,2025-02-24 12:31:48.781,2.0
-1,-3,-3,-3,-5,-2,-1,-1,2025-02-24 12:31:48.786,2.0
-1,-3,-3,-3,-5,-2,-1,-1,2025-02-24 12:31:48.797,2.0
-1,-3,-3,-3,-5,-2,-1,-1,2025-02-24 12:31:48.809,2.0
0,0,-2,-2,-5,0,1,0,2025-02-24 12:31:48.821,2.0
0,-3,-7,-4,-4,-2,-2,0,2025-02-24 12:31:48.831,2.0
-2,-1,-3,-1,-6,-1,0,-1,2025-02-24 12:31:48.842,2.0
0,1,-1,-1,-5,-2,-1,-1,2025-02-24 12:31:48.853,2.0
-2,1,2,0,-4,0,0,-2,2025-02-24 12:31:48.865,2.0
0,-2,0,-1,-5,-1,-1,-2,2025-02-24 12:31:48.876,2.0
2,0,1,1,-4,-2,0,0,2025-02-24 12:31:48.888,2.0
4,-4,-1,-2,-2,1,0,-1,2025-02-24 12:31:48.899,2.0
-2,-5,-4,-2,-4,0,-2,-1,2025-02-24 12:31:48.910,2.0
3,1,-2,-2,-5,-1,-1,0,2025-02-24 12:31:48.921,2.0
-7,-3,-3,-1,-4,-1,0,-1,2025-02-24 12:31:48.932,2.0
-7,-3,-3,-1,-4,-1,0,-1,2025-02-24 12:31:48.944,2.0
-9,2,3,1,-5,-2,-3,-1,2025-02-24 12:31:48.955,2.0
-9,2,3,1,-5,-2,-3,-1,2025-02-24 12:31:48.966,2.0
-2,-8,-6,-4,-4,-2,-27,-3,2025-02-24 12:31:48.976,2.0
-1,0,-1,0,-4,2,1,1,2025-02-24 12:31:48.988,2.0
11,14,0,-3,-5,-1,-3,-1,2025-02-24 12:31:48.999,2.0
4,1,57,6,-8,-1,77,20,2025-02-24 12:31:49.010,2.0
-62,-21,26,-6,-10,-5,-30,-19,2025-02-24 12:31:49.023,2.0
-98,-62,-34,-11,-4,8,8,-2,2025-02-24 12:31:49.032,2.0
-98,-62,-34,-11,-4,8,8,-2,2025-02-24 12:31:49.043,2.0
-7,-16,21,-4,-11,-17,-93,-81,2025-02-24 12:31:49.055,2.0
-7,-16,21,-4,-11,-17,-93,-81,2025-02-24 12:31:49.066,2.0
61,42,0,3,-3,1,10,17,2025-02-24 12:31:49.077,2.0
43,-9,13,8,-3,-2,-24,-38,2025-02-24 12:31:49.088,2.0
32,0,-32,-3,-12,5,88,8,2025-02-24 12:31:49.100,2.0
-38,-17,-17,-8,-11,-1,37,11,2025-02-24 12:31:49.111,2.0
-38,-17,-17,-8,-11,-1,37,11,2025-02-24 12:31:49.122,2.0
-8,-2,91,-7,-11,-4,-29,-17,2025-02-24 12:31:49.133,2.0
-32,-36,-62,-11,-10,-2,-46,9,2025-02-24 12:31:49.145,2.0
-54,-27,7,8,-3,-2,2,-10,2025-02-24 12:31:49.156,2.0
-5,5,-39,-3,-1,7,-19,15,2025-02-24 12:31:49.167,2.0
28,-8,-21,-7,-4,1,-21,11,2025-02-24 12:31:49.179,2.0
-8,-13,-65,-2,0,-6,127,33,2025-02-24 12:31:49.189,2.0
22,37,-44,8,5,-5,7,-20,2025-02-24 12:31:49.201,2.0
15,-9,12,3,7,23,-10,1,2025-02-24 12:31:49.212,2.0
15,-9,12,3,7,23,-10,1,2025-02-24 12:31:49.225,2.0
22,15,13,1,-3,5,59,-3,2025-02-24 12:31:49.235,2.0
22,15,13,1,-3,5,59,-3,2025-02-24 12:31:49.247,2.0
17,12,70,-11,-13,-11,79,10,2025-02-24 12:31:49.258,2.0
17,12,70,-11,-13,-11,79,10,2025-02-24 12:31:49.269,2.0
-6,19,-20,8,-5,1,-8,12,2025-02-24 12:31:49.281,2.0
-30,-18,-7,-5,-6,4,-12,1,2025-02-24 12:31:49.292,2.0
-30,-18,-7,-5,-6,4,-12,1,2025-02-24 12:31:49.304,2.0
-37,17,-8,9,8,7,19,19,2025-02-24 12:31:49.315,2.0
-37,17,-8,9,8,7,19,19,2025-02-24 12:31:49.327,2.0
31,-4,24,-2,-2,-1,-74,13,2025-02-24 12:31:49.338,2.0
10,11,-1,3,-1,-7,23,5,2025-02-24 12:31:49.350,2.0
-73,-44,27,-2,-8,-5,-100,-52,2025-02-24 12:31:49.362,2.0
39,22,7,5,6,0,55,7,2025-02-24 12:31:49.373,2.0
39,22,7,5,6,0,55,7,2025-02-24 12:31:49.383,2.0
39,22,7,5,6,0,55,7,2025-02-24 12:31:49.395,2.0
15,17,-46,0,-4,-7,-30,-3,2025-02-24 12:31:49.406,2.0
37,-11,-23,-7,-10,-10,17,-45,2025-02-24 12:31:49.417,2.0
37,-11,-23,-7,-10,-10,17,-45,2025-02-24 12:31:49.430,2.0
46,40,-46,7,5,-5,-58,13,2025-02-24 12:31:49.439,2.0
-25,15,-16,7,13,5,4,-13,2025-02-24 12:31:49.450,2.0
15,-3,34,-1,-7,-5,3,-27,2025-02-24 12:31:49.462,2.0
-22,-5,46,3,3,4,-112,-20,2025-02-24 12:31:49.473,2.0
1,8,36,2,-2,7,76,11,2025-02-24 12:31:49.484,2.0
14,23,21,6,1,-5,47,12,2025-02-24 12:31:49.495,2.0
14,23,21,6,1,-5,47,12,2025-02-24 12:31:49.507,2.0
-7,16,73,2,-6,-2,-25,0,2025-02-24 12:31:49.518,2.0
-31,-1,-49,-1,-3,-18,-12,-18,2025-02-24 12:31:49.529,2.0
-3,-14,-39,-4,-3,-6,-36,-3,2025-02-24 12:31:49.541,2.0
-3,-14,-39,-4,-3,-6,-36,-3,2025-02-24 12:31:49.552,2.0
15,22,37,1,-6,-6,11,8,2025-02-24 12:31:49.563,2.0
-25,-9,-9,-1,3,7,-72,14,2025-02-24 12:31:49.574,2.0
-15,-8,-7,-1,-2,1,-6,-19,2025-02-24 12:31:49.585,2.0
1,-14,13,-4,-6,-4,47,-4,2025-02-24 12:31:49.596,2.0
1,-14,13,-4,-6,-4,47,-4,2025-02-24 12:31:49.607,2.0
-10,-14,-27,-1,1,6,40,17,2025-02-24 12:31:49.618,2.0
-10,-14,-27,-1,1,6,40,17,2025-02-24 12:31:49.631,2.0
1,-4,9,5,1,9,-17,3,2025-02-24 12:31:49.640,2.0
-15,-10,10,-7,-5,-18,-64,-18,2025-02-24 12:31:49.652,2.0
17,-3,49,-1,0,0,0,-4,2025-02-24 12:31:49.663,2.0
-7,-15,-68,-12,-9,-5,-5,-34,2025-02-24 12:31:49.674,2.0
-7,-15,-68,-12,-9,-5,-5,-34,2025-02-24 12:31:49.685,2.0
-8,-4,-49,-6,0,1,-30,-27,2025-02-24 12:31:49.696,2.0
3,-24,-39,-18,-11,-1,37,4,2025-02-24 12:31:49.708,2.0
9,0,-10,-1,-5,6,-41,13,2025-02-24 12:31:49.719,2.0
11,13,4,2,4,11,60,16,2025-02-24 12:31:49.730,2.0
1,-1,-7,-3,-3,-21,-6,15,2025-02-24 12:31:49.742,2.0
-16,-5,-16,-1,1,6,13,-4,2025-02-24 12:31:49.752,2.0
12,4,38,4,-3,-3,-23,1,2025-02-24 12:31:49.763,2.0
4,18,22,8,-8,-3,-11,7,2025-02-24 12:31:49.774,2.0
4,18,22,8,-8,-3,-11,7,2025-02-24 12:31:49.785,2.0
-3,-7,-45,-5,0,11,-14,2,2025-02-24 12:31:49.797,2.0
-3,-7,-45,-5,0,11,-14,2,2025-02-24 12:31:49.809,2.0
5,2,31,-1,-6,-8,10,-6,2025-02-24 12:31:49.820,2.0
-24,-3,-7,-2,0,-9,-1,-3,2025-02-24 12:31:49.833,2.0
6,-11,-44,-8,-7,3,-47,-27,2025-02-24 12:31:49.842,2.0
8,-11,-48,-6,2,-9,-36,6,2025-02-24 12:31:49.853,2.0
8,-11,-48,-6,2,-9,-36,6,2025-02-24 12:31:49.864,2.0
8,-11,-48,-6,2,-9,-36,6,2025-02-24 12:31:49.876,2.0
-8,-8,-30,2,2,-7,-37,-27,2025-02-24 12:31:49.887,2.0
-11,8,-8,2,-2,-1,79,12,2025-02-24 12:31:49.898,2.0
2,8,-1,0,-6,-7,47,9,2025-02-24 12:31:49.909,2.0
2,8,-1,0,-6,-7,47,9,2025-02-24 12:31:49.921,2.0
7,-1,26,1,-1,-5,-59,18,2025-02-24 12:31:49.933,2.0
7,-1,26,1,-1,-5,-59,18,2025-02-24 12:31:49.942,2.0
-2,-18,25,-10,-10,-12,50,-7,2025-02-24 12:31:49.953,2.0
-2,-18,25,-10,-10,-12,50,-7,2025-02-24 12:31:49.965,2.0
4,-1,27,6,8,7,-3,-13,2025-02-24 12:31:49.976,2.0
4,-1,27,6,8,7,-3,-13,2025-02-24 12:31:49.987,2.0
4,-1,27,6,8,7,-3,-13,2025-02-24 12:31:49.999,2.0
9,-7,-50,1,-2,-4,24,15,2025-02-24 12:31:50.009,2.0
1,45,-11,-1,-1,-10,-43,8,2025-02-24 12:31:50.021,2.0
1,45,-11,-1,-1,-10,-43,8,2025-02-24 12:31:50.034,2.0
8,-2,10,-3,-2,6,74,18,2025-02-24 12:31:50.043,2.0
2,2,-34,-2,-2,-2,30,-2,2025-02-24 12:31:50.054,2.0
2,2,-34,-2,-2,-2,30,-2,2025-02-24 12:31:50.065,2.0
-4,-9,12,4,-1,4,-24,-28,2025-02-24 12:31:50.077,2.0
5,-4,7,-4,-1,4,-17,6,2025-02-24 12:31:50.088,2.0
9,14,23,5,3,-5,-31,15,2025-02-24 12:31:50.099,2.0
-8,-14,-4,-9,-5,-5,-2,6,2025-02-24 12:31:50.111,2.0
-13,-9,-12,-1,-1,19,9,0,2025-02-24 12:31:50.121,2.2
-13,-9,-12,-1,-1,19,9,0,2025-02-24 12:31:50.132,2.2
-1,-2,-8,0,-4,3,26,9,2025-02-24 12:31:50.143,2.2
-19,-3,19,3,0,-6,-83,-25,2025-02-24 12:31:50.155,2.2
-19,-3,19,3,0,-6,-83,-25,2025-02-24 12:31:50.166,2.2
9,-7,-36,-7,-3,-2,71,10,2025-02-24 12:31:50.177,2.2
9,-7,-36,-7,-3,-2,71,10,2025-02-24 12:31:50.188,2.2
-8,-4,15,-2,-4,0,7,-2,2025-02-24 12:31:50.199,2.2
-3,-12,-13,-4,-3,-4,-6,-1,2025-02-24 12:31:50.211,2.2
-3,-12,-13,-4,-3,-4,-6,-1,2025-02-24 12:31:50.221,2.2
7,-1,-20,-1,-3,-13,0,4,2025-02-24 12:31:50.234,2.2
7,-1,-20,-1,-3,-13,0,4,2025-02-24 12:31:50.244,2.2
13,8,-2,4,0,0,2,-17,2025-02-24 12:31:50.255,2.2
13,8,-2,4,0,0,2,-17,2025-02-24 12:31:50.266,2.2
-2,-1,1,-1,-4,-3,-11,-1,2025-02-24 12:31:50.277,2.2
-2,-1,1,-1,-4,-3,-11,-1,2025-02-24 12:31:50.289,2.2
0,5,8,2,-1,4,32,65,2025-02-24 12:31:50.300,2.2
0,5,8,2,-1,4,32,65,2025-02-24 12:31:50.311,2.2
-3,-9,7,-5,-5,2,0,-14,2025-02-24 12:31:50.323,2.2
2,1,25,2,-1,-2,-2,-4,2025-02-24 12:31:50.334,2.2
9,6,-17,2,0,-2,6,-6,2025-02-24 12:31:50.344,2.2
4,-9,20,-5,-8,-1,46,31,2025-02-24 12:31:50.355,2.2
4,-9,20,-5,-8,-1,46,31,2025-02-24 12:31:50.366,2.2
-5,4,-12,-2,-2,2,-3,-38,2025-02-24 12:31:50.378,2.2
-5,-4,4,-2,-3,-6,0,-12,2025-02-24 12:31:50.389,2.2
-3,-4,-1,-3,0,-9,-10,-8,2025-02-24 12:31:50.400,2.2
4,7,-3,3,-2,-8,-8,1,2025-02-24 12:31:50.411,2.2
-4,-1,2,0,-1,-2,-9,1,2025-02-24 12:31:50.424,2.2
-6,0,15,1,-2,2,-6,-10,2025-02-24 12:31:50.436,2.2
-2,-9,5,0,-3,-8,3,0,2025-02-24 12:31:50.445,2.2
-3,-1,-8,3,-1,-3,-11,-9,2025-02-24 12:31:50.457,2.2
-3,-1,-8,3,-1,-3,-11,-9,2025-02-24 12:31:50.468,2.2
-3,-4,-3,-5,-5,1,-4,-6,2025-02-24 12:31:50.479,2.2
-3,-4,-3,-5,-5,1,-4,-6,2025-02-24 12:31:50.490,2.2
-3,-5,1,-3,-2,-2,-2,0,2025-02-24 12:31:50.502,2.2
-2,-1,-5,-1,-2,0,-2,-7,2025-02-24 12:31:50.513,2.2
-1,-2,5,2,-1,-1,-3,0,2025-02-24 12:31:50.524,2.2
-2,-1,-3,-3,-3,1,-1,-4,2025-02-24 12:31:50.534,2.2
-2,-1,-3,-3,-3,1,-1,-4,2025-02-24 12:31:50.546,2.2
-3,-3,-2,-1,-2,-2,-3,0,2025-02-24 12:31:50.557,2.2
-4,-2,1,-2,-1,-1,-1,-4,2025-02-24 12:31:50.568,2.2
0,-2,-3,1,-1,-3,-2,-1,2025-02-24 12:31:50.579,2.2
-3,-6,-7,-2,-4,-1,0,-6,2025-02-24 12:31:50.590,2.2
-2,0,1,-2,-3,0,-2,-2,2025-02-24 12:31:50.601,2.2
2,2,-1,0,-4,-2,-2,-2,2025-02-24 12:31:50.612,2.2
-1,1,-1,0,-2,0,-3,-1,2025-02-24 12:31:50.624,2.2
-2,0,-1,1,-1,-2,-1,-4,2025-02-24 12:31:50.636,2.2
-2,0,-1,1,-1,-2,-1,-4,2025-02-24 12:31:50.646,2.2
-1,-6,-8,-5,-1,-1,-1,-1,2025-02-24 12:31:50.658,2.2
-1,-6,-8,-5,-1,-1,-1,-1,2025-02-24 12:31:50.668,2.2
0,3,4,0,-2,1,0,1,2025-02-24 12:31:50.679,2.2
0,3,4,0,-2,1,0,1,2025-02-24 12:31:50.691,2.2
-2,-2,0,1,-4,-1,-2,0,2025-02-24 12:31:50.702,2.2
1,-4,-3,-2,-1,-1,0,1,2025-02-24 12:31:50.713,2.2
1,-4,-3,-2,-1,-1,0,1,2025-02-24 12:31:50.724,2.2
1,-4,-3,-2,-1,-1,0,1,2025-02-24 12:31:50.736,2.2
2,-3,0,-3,-2,-1,-1,-1,2025-02-24 12:31:50.747,2.2
0,-4,-1,-1,-2,-1,-1,-2,2025-02-24 12:31:50.758,2.2
0,-4,-1,-1,-2,-1,-1,-2,2025-02-24 12:31:50.769,2.2
-1,-2,-1,-2,-1,-1,-1,0,2025-02-24 12:31:50.780,2.2
-1,-2,-1,-2,-1,-1,-1,0,2025-02-24 12:31:50.792,2.2
0,0,-1,-1,-2,-2,0,1,2025-02-24 12:31:50.803,2.2
0,0,-1,-1,-2,-2,0,1,2025-02-24 12:31:50.814,2.2
-3,-3,-1,-2,-1,0,-2,-1,2025-02-24 12:31:50.825,2.2
-4,-8,-6,-5,-2,-1,-1,-3,2025-02-24 12:31:50.837,2.2
-4,-3,-2,-3,-4,-1,-1,-2,2025-02-24 12:31:50.847,2.2
-5,-3,-1,-3,-2,-1,-1,-2,2025-02-24 12:31:50.858,2.2
3,2,3,3,0,-1,0,1,2025-02-24 12:31:50.869,2.2
-3,-3,-7,-3,-4,0,-1,-2,2025-02-24 12:31:50.881,2.2
-2,-3,-2,-3,-4,1,-2,-3,2025-02-24 12:31:50.892,2.2
-2,-3,-2,-3,-4,1,-2,-3,2025-02-24 12:31:50.903,2.2
1,3,3,2,-2,0,0,0,2025-02-24 12:31:50.914,2.2
1,3,3,2,-2,0,0,0,2025-02-24 12:31:50.925,2.2
0,-3,-3,-2,-2,-1,0,-1,2025-02-24 12:31:50.936,2.2
0,-3,-3,-2,-2,-1,0,-1,2025-02-24 12:31:50.947,2.2
0,3,-1,0,-3,-3,-4,-2,2025-02-24 12:31:50.959,2.2
0,3,-1,0,-3,-3,-4,-2,2025-02-24 12:31:50.970,2.2
-8,-10,-4,-1,-3,-1,0,-1,2025-02-24 12:31:50.981,2.2
-8,-10,-4,-1,-3,-1,0,-1,2025-02-24 12:31:50.992,2.2
4,3,1,1,-3,-1,-1,0,2025-02-24 12:31:51.003,2.2
5,2,1,-1,-2,0,-1,-1,2025-02-24 12:31:51.015,2.2
5,2,1,-1,-2,0,-1,-1,2025-02-24 12:31:51.026,2.2
-4,-6,-5,-3,-3,-3,-2,-1,2025-02-24 12:31:51.039,2.2
-4,-6,-5,-3,-3,-3,-2,-1,2025-02-24 12:31:51.048,2.2
-3,-1,1,-1,-2,0,0,-1,2025-02-24 12:31:51.059,2.2
-1,-4,-3,-3,-3,-1,-3,-2,2025-02-24 12:31:51.070,2.2
-1,-4,-3,-3,-3,-1,-3,-2,2025-02-24 12:31:51.082,2.2
-1,-2,0,-2,-2,-1,-2,-2,2025-02-24 12:31:51.093,2.2
-1,-2,0,-2,-2,-1,-2,-2,2025-02-24 12:31:51.104,2.2
-1,-2,0,-2,-2,-1,-2,-2,2025-02-24 12:31:51.115,2.2
-1,2,0,-1,-3,-2,0,-1,2025-02-24 12:31:51.127,2.2
-2,-6,-4,-2,-3,1,-1,-2,2025-02-24 12:31:51.137,2.2
-2,-6,-4,-2,-3,1,-1,-2,2025-02-24 12:31:51.149,2.2
0,2,2,0,-3,-3,-1,0,2025-02-24 12:31:51.160,2.2
0,2,2,0,-3,-3,-1,0,2025-02-24 12:31:51.171,2.2
0,2,0,1,-3,-2,0,-1,2025-02-24 12:31:51.182,2.2
0,3,1,-1,-4,-1,0,-1,2025-02-24 12:31:51.194,2.2
0,3,1,-1,-4,-1,0,-1,2025-02-24 12:31:51.205,2.2
2,1,0,-2,-2,0,0,-2,2025-02-24 12:31:51.216,2.2
2,1,0,-2,-2,0,0,-2,2025-02-24 12:31:51.227,2.2
-1,0,-3,-2,-3,-2,-2,-1,2025-02-24 12:31:51.240,2.2
-1,0,-1,1,-1,0,0,-2,2025-02-24 12:31:51.249,2.2
-1,0,-1,1,-1,0,0,-2,2025-02-24 12:31:51.260,2.2
-1,0,-1,1,-1,0,0,-2,2025-02-24 12:31:51.272,2.2
0,4,0,0,-2,1,-2,-1,2025-02-24 12:31:51.284,2.2
0,-4,-3,-3,-3,-1,0,-2,2025-02-24 12:31:51.295,2.2
-2,-5,-1,1,-3,-1,0,-1,2025-02-24 12:31:51.305,2.2
3,-1,-1,-2,-2,1,-2,0,2025-02-24 12:31:51.316,2.2
3,-1,-1,-2,-2,1,-2,0,2025-02-24 12:31:51.327,2.2
3,-1,-1,-2,-2,1,-2,0,2025-02-24 12:31:51.338,2.2
1,-3,-4,-2,-4,-1,-2,0,2025-02-24 12:31:51.349,2.2
-3,-1,0,-3,0,0,-1,-1,2025-02-24 12:31:51.361,2.2
-1,0,-4,-2,-1,0,-1,-1,2025-02-24 12:31:51.372,2.2
-1,0,-4,-2,-1,0,-1,-1,2025-02-24 12:31:51.383,2.2
-4,-1,2,-1,-4,-3,0,-2,2025-02-24 12:31:51.395,2.2
-4,-1,2,-1,-4,-3,0,-2,2025-02-24 12:31:51.405,2.2
0,6,0,1,-2,0,-1,0,2025-02-24 12:31:51.417,2.2
0,6,0,1,-2,0,-1,0,2025-02-24 12:31:51.428,2.2
-1,3,0,1,-1,-2,-1,-2,2025-02-24 12:31:51.442,2.2
-4,0,-1,-1,-4,-2,-1,-1,2025-02-24 12:31:51.451,2.2
-4,0,-1,-1,-4,-2,-1,-1,2025-02-24 12:31:51.462,2.2
-4,0,-1,-1,-4,-2,-1,-1,2025-02-24 12:31:51.473,2.2
4,-1,-3,-2,-3,0,-2,1,2025-02-24 12:31:51.483,2.2
-1,1,1,2,-3,-1,1,-1,2025-02-24 12:31:51.495,2.2
-1,1,1,2,-3,-1,1,-1,2025-02-24 12:31:51.506,2.2
-4,-3,-2,-4,-4,-2,-2,0,2025-02-24 12:31:51.517,2.2
-4,-3,-2,-4,-4,-2,-2,0,2025-02-24 12:31:51.529,2.2
-4,-3,-2,-4,-4,-2,-2,0,2025-02-24 12:31:51.540,2.2
-3,-2,0,-1,-2,1,-2,-1,2025-02-24 12:31:51.551,2.2
2,-2,0,-1,-3,-1,-2,0,2025-02-24 12:31:51.562,2.2
-1,-1,-3,-2,-3,-1,0,-2,2025-02-24 12:31:51.574,2.2
-1,-1,-3,-2,-3,-1,0,-2,2025-02-24 12:31:51.585,2.2
-6,-1,0,1,-3,-4,-1,-1,2025-02-24 12:31:51.596,2.2
-6,-1,0,1,-3,-4,-1,-1,2025-02-24 12:31:51.607,2.2
-5,-4,-2,-2,-3,-1,-2,-2,2025-02-24 12:31:51.618,2.2
-5,-4,-2,-2,-3,-1,-2,-2,2025-02-24 12:31:51.629,2.2
0,-3,-1,-1,-4,-3,-1,-1,2025-02-24 12:31:51.642,2.2
0,-3,-1,-1,-4,-3,-1,-1,2025-02-24 12:31:51.651,2.2
0,-3,-1,-1,-4,-3,-1,-1,2025-02-24 12:31:51.662,2.2
-2,-4,-3,-2,-2,1,-2,-1,2025-02-24 12:31:51.674,2.2
5,-1,-3,-1,-2,1,0,1,2025-02-24 12:31:51.685,2.2
4,1,1,0,-2,-2,1,1,2025-02-24 12:31:51.696,2.2
4,1,1,0,-2,-2,1,1,2025-02-24 12:31:51.707,2.2
-1,-2,-2,-3,-2,-1,-2,-2,2025-02-24 12:31:51.718,2.2
-2,-6,-4,-4,-4,-1,-2,1,2025-02-24 12:31:51.729,2.2
-3,0,0,2,-3,-2,0,-2,2025-02-24 12:31:51.741,2.2
-2,-3,-2,0,-3,0,0,-1,2025-02-24 12:31:51.752,2.2
-5,-2,-1,-1,0,0,-2,-2,2025-02-24 12:31:51.763,2.2
0,3,1,2,-4,0,-1,-1,2025-02-24 12:31:51.774,2.2
0,0,-1,-1,-3,0,-1,0,2025-02-24 12:31:51.785,2.2
0,3,3,0,1,-1,0,0,2025-02-24 12:31:51.797,2.2
-4,-5,-2,-1,-5,-1,-1,-1,2025-02-24 12:31:51.808,2.2
-4,-2,-3,-4,-3,0,-2,-2,2025-02-24 12:31:51.819,2.2
-4,-2,-3,-4,-3,0,-2,-2,2025-02-24 12:31:51.830,2.2
-4,-1,-1,0,-3,-2,-3,-2,2025-02-24 12:31:51.844,2.2
-2,0,0,0,0,-2,1,-2,2025-02-24 12:31:51.852,2.2
3,0,0,-1,-2,0,0,0,2025-02-24 12:31:51.864,2.2
1,4,1,-1,-3,0,-1,-1,2025-02-24 12:31:51.875,2.2
1,4,1,-1,-3,0,-1,-1,2025-02-24 12:31:51.886,2.2
-1,-1,0,-1,-4,-4,-2,-1,2025-02-24 12:31:51.897,2.2
-1,-1,0,-1,-4,-4,-2,-1,2025-02-24 12:31:51.909,2.2
-5,-5,-4,-3,-6,-2,-2,-3,2025-02-24 12:31:51.919,2.2
-5,-5,-4,-3,-6,-2,-2,-3,2025-02-24 12:31:51.931,2.2
-2,-2,0,-1,-3,-1,0,-2,2025-02-24 12:31:51.942,2.2
-2,-2,0,-1,-3,-1,0,-2,2025-02-24 12:31:51.953,2.2
1,0,1,1,-2,0,0,0,2025-02-24 12:31:51.964,2.2
1,0,1,1,-2,0,0,0,2025-02-24 12:31:51.976,2.2
-2,-3,-3,0,-2,0,-1,-1,2025-02-24 12:31:51.987,2.2
-1,-8,-7,-4,-3,0,-1,-3,2025-02-24 12:31:51.998,2.2
-1,-8,-7,-4,-3,0,-1,-3,2025-02-24 12:31:52.009,2.2
0,-2,0,0,-2,-1,0,2,2025-02-24 12:31:52.020,2.2
0,-2,0,0,-2,-1,0,2,2025-02-24 12:31:52.032,2.2
0,2,2,0,-3,0,-1,-1,2025-02-24 12:31:52.045,2.2
1,4,1,2,-3,-2,-2,1,2025-02-24 12:31:52.054,2.2
1,4,1,2,-3,-2,-2,1,2025-02-24 12:31:52.064,2.2
1,4,1,2,-3,-2,-2,1,2025-02-24 12:31:52.075,2.2
1,-2,-1,-2,-1,0,-1,3,2025-02-24 12:31:52.087,2.2
-1,0,-1,1,-2,-1,-1,-1,2025-02-24 12:31:52.098,2.2
-1,0,-1,1,-2,-1,-1,-1,2025-02-24 12:31:52.110,2.2
-4,-5,-5,-4,-1,-2,-2,-2,2025-02-24 12:31:52.121,2.2
-4,-5,-5,-4,-1,-2,-2,-2,2025-02-24 12:31:52.132,2.2
-4,-5,-5,-4,-1,-2,-2,-2,2025-02-24 12:31:52.143,2.2
0,1,0,1,-3,0,-1,-2,2025-02-24 12:31:52.154,2.2
2,-2,0,-2,-4,-1,-2,0,2025-02-24 12:31:52.165,2.2
-3,-6,-3,-2,-4,-1,-1,-5,2025-02-24 12:31:52.177,2.2
-3,-6,-3,-2,-4,-1,-1,-5,2025-02-24 12:31:52.188,2.2
-3,-6,-3,-2,-4,-1,-1,-5,2025-02-24 12:31:52.199,2.2
5,2,1,1,-3,-2,-1,1,2025-02-24 12:31:52.210,2.2
-13,-6,-1,-2,-3,-2,-1,-3,2025-02-24 12:31:52.222,2.2
-6,-6,-4,-2,-3,0,0,-2,2025-02-24 12:31:52.233,2.2
5,2,-2,0,-2,0,-2,1,2025-02-24 12:31:52.245,2.2
2,1,-3,-1,-3,-1,0,1,2025-02-24 12:31:52.254,2.2
2,1,-3,-1,-3,-1,0,1,2025-02-24 12:31:52.266,2.2
-2,-1,-3,-1,-1,1,0,-2,2025-02-24 12:31:52.276,2.2
-4,1,-4,-3,-3,-3,-1,-2,2025-02-24 12:31:52.288,2.2
1,0,1,-1,-2,-1,0,1,2025-02-24 12:31:52.299,2.2
1,0,1,-1,-2,-1,0,1,2025-02-24 12:31:52.310,2.2
-4,-1,-1,-1,-3,-2,-1,0,2025-02-24 12:31:52.321,2.2
-4,-1,-1,-1,-3,-2,-1,0,2025-02-24 12:31:52.333,2.2
0,-2,-3,-2,-2,1,-1,-1,2025-02-24 12:31:52.344,2.2
-3,-1,-1,0,-3,-1,1,-2,2025-02-24 12:31:52.355,2.2
1,1,-3,1,-1,0,-2,-2,2025-02-24 12:31:52.366,2.2
0,1,2,-1,-4,-2,-1,-1,2025-02-24 12:31:52.378,2.2
0,1,2,-1,-4,-2,-1,-1,2025-02-24 12:31:52.389,2.2
-9,-4,-1,-2,-4,-1,-1,0,2025-02-24 12:31:52.400,2.2
-5,-2,-3,-2,-3,-1,-1,-2,2025-02-24 12:31:52.412,2.2
4,4,-1,0,-2,1,0,0,2025-02-24 12:31:52.423,2.2
4,4,-1,0,-2,1,0,0,2025-02-24 12:31:52.433,2.2
-6,-5,-2,-3,-3,0,-1,-3,2025-02-24 12:31:52.447,2.2
0,0,-2,1,0,-1,-2,-1,2025-02-24 12:31:52.455,2.2
0,0,-2,1,0,-1,-2,-1,2025-02-24 12:31:52.466,2.2
0,0,-2,1,0,-1,-2,-1,2025-02-24 12:31:52.477,2.2
0,-1,-1,-3,-2,0,0,-1,2025-02-24 12:31:52.489,2.2
2,1,0,0,-1,-1,-2,-1,2025-02-24 12:31:52.500,2.2
2,1,0,0,-1,-1,-2,-1,2025-02-24 12:31:52.511,2.2
0,1,0,0,-4,-2,-3,-2,2025-02-24 12:31:52.522,2.2
0,1,0,0,-3,-1,0,0,2025-02-24 12:31:52.534,2.2
0,1,0,0,-3,-1,0,0,2025-02-24 12:31:52.545,2.2
-2,-7,-4,-3,-2,1,0,-2,2025-02-24 12:31:52.556,2.2
-1,-1,-1,1,-4,-1,-2,-1,2025-02-24 12:31:52.567,2.2
1,3,-2,-1,-3,-2,-2,-1,2025-02-24 12:31:52.578,2.2
-5,-2,-3,0,-2,1,-1,-1,2025-02-24 12:31:52.590,2.2
1,0,-2,-1,-3,-1,-1,-1,2025-02-24 12:31:52.600,2.2
1,0,-2,-1,-3,-1,-1,-1,2025-02-24 12:31:52.612,2.2
-3,-8,-9,-5,-4,-1,0,-1,2025-02-24 12:31:52.623,2.2
-3,-8,-9,-5,-4,-1,0,-1,2025-02-24 12:31:52.634,2.2
-1,2,0,0,-3,-2,-2,-1,2025-02-24 12:31:52.648,2.2
-1,0,2,0,-3,0,-3,-1,2025-02-24 12:31:52.657,2.2
-1,-1,-3,-1,-2,0,-2,-1,2025-02-24 12:31:52.668,2.2
0,-1,0,0,-2,-1,0,-3,2025-02-24 12:31:52.679,2.2
0,-1,0,0,-2,-1,0,-3,2025-02-24 12:31:52.691,2.2
1,0,0,-1,-3,0,0,-1,2025-02-24 12:31:52.702,2.2
1,-1,-2,-2,-2,-1,-1,0,2025-02-24 12:31:52.713,2.2
1,-1,-2,-2,-2,-1,-1,0,2025-02-24 12:31:52.724,2.2
2,-1,0,-4,-1,-1,-1,-1,2025-02-24 12:31:52.735,2.2
2,-1,0,-4,-1,-1,-1,-1,2025-02-24 12:31:52.746,2.2
2,-1,0,-4,-1,-1,-1,-1,2025-02-24 12:31:52.757,2.2
-3,0,-1,-2,-2,0,-2,-2,2025-02-24 12:31:52.768,2.2
-3,0,-1,0,-2,1,0,-1,2025-02-24 12:31:52.780,2.2
-3,0,-1,0,-2,1,0,-1,2025-02-24 12:31:52.791,2.2
-2,-5,-2,-3,-2,-3,-1,-1,2025-02-24 12:31:52.802,2.2
-2,-5,-2,-3,-2,-3,-1,-1,2025-02-24 12:31:52.813,2.2
-1,-2,-2,-1,-4,-1,-2,0,2025-02-24 12:31:52.825,2.2
0,-3,-2,-1,-3,-1,-1,-2,2025-02-24 12:31:52.835,2.2
-2,1,-1,0,-1,-1,-1,0,2025-02-24 12:31:52.848,2.2
-3,-5,-4,-3,-5,-1,-1,-2,2025-02-24 12:31:52.858,2.2
-3,-5,-4,-3,-5,-1,-1,-2,2025-02-24 12:31:52.869,2.2
0,2,3,0,-4,-2,0,0,2025-02-24 12:31:52.880,2.2
-4,-1,0,-1,-3,0,0,-1,2025-02-24 12:31:52.891,2.2
-1,-2,-3,-2,-4,-3,-1,-1,2025-02-24 12:31:52.902,2.2
-1,-2,-3,-2,-4,-3,-1,-1,2025-02-24 12:31:52.913,2.2
2,0,-2,0,-4,-1,-2,-1,2025-02-24 12:31:52.925,2.2
2,0,-2,0,-4,-1,-2,-1,2025-02-24 12:31:52.936,2.2
0,-1,1,-1,-3,1,0,-1,2025-02-24 12:31:52.947,2.2
0,-1,1,-1,-3,1,0,-1,2025-02-24 12:31:52.959,2.2
-5,-4,-3,-2,-3,1,-2,-1,2025-02-24 12:31:52.969,2.2
-3,2,0,2,-1,-2,-2,-1,2025-02-24 12:31:52.980,2.2
-3,2,0,2,-1,-2,-2,-1,2025-02-24 12:31:52.991,2.2
-1,-1,-2,2,-4,-2,-1,-2,2025-02-24 12:31:53.003,2.2
-1,-1,-2,2,-4,-2,-1,-2,2025-02-24 12:31:53.014,2.2
-1,-1,-2,2,-4,-2,-1,-2,2025-02-24 12:31:53.025,2.2
-4,1,-1,0,-2,-1,-1,-3,2025-02-24 12:31:53.037,2.2
-4,1,-1,0,-2,-1,-1,-3,2025-02-24 12:31:53.050,2.2
-4,1,-1,0,-2,-1,-1,-3,2025-02-24 12:31:53.059,2.2
0,-6,-4,-2,-4,1,1,-1,2025-02-24 12:31:53.070,2.2
2,-2,-1,-1,0,0,0,1,2025-02-24 12:31:53.081,2.2
2,-2,-1,-1,0,0,0,1,2025-02-24 12:31:53.093,2.2
-1,-1,-3,-1,-2,0,0,-1,2025-02-24 12:31:53.104,2.2
-1,-1,-3,-1,-2,0,0,-1,2025-02-24 12:31:53.115,2.2
1,0,-1,0,-2,0,-3,-1,2025-02-24 12:31:53.126,2.2
1,0,-1,0,-2,0,-3,-1,2025-02-24 12:31:53.137,2.2
1,1,-1,1,-4,0,-1,-1,2025-02-24 12:31:53.148,2.2
-2,-2,0,-2,-1,-3,-2,-1,2025-02-24 12:31:53.159,2.2
-2,-2,0,-2,-1,-3,-2,-1,2025-02-24 12:31:53.170,2.2
-2,-2,0,-2,-1,-3,-2,-1,2025-02-24 12:31:53.182,2.2
-4,1,0,0,-3,-1,-2,0,2025-02-24 12:31:53.193,2.2
2,2,1,0,-2,-2,-1,0,2025-02-24 12:31:53.204,2.2
2,2,1,0,-2,-2,-1,0,2025-02-24 12:31:53.215,2.2
-1,1,3,0,-3,-1,-2,-1,2025-02-24 12:31:53.226,2.2
0,-2,-1,-1,-4,-1,1,-3,2025-02-24 12:31:53.237,2.2
1,-1,0,-2,-5,-2,-1,-1,2025-02-24 12:31:53.251,2.2
-6,-4,-2,-2,-3,-1,1,-4,2025-02-24 12:31:53.259,2.2
-2,-2,-3,-2,-2,0,-1,-1,2025-02-24 12:31:53.271,2.2
-3,-9,-6,-5,-4,0,-2,0,2025-02-24 12:31:53.282,2.2
-2,-3,-4,0,-3,-2,0,-2,2025-02-24 12:31:53.293,2.2
-1,1,1,1,-3,1,-1,-1,2025-02-24 12:31:53.304,2.2
-1,1,1,1,-3,1,-1,-1,2025-02-24 12:31:53.316,2.2
-1,-4,-3,-3,-1,-1,-1,-1,2025-02-24 12:31:53.327,2.2
-1,-1,0,-1,-3,-1,-1,0,2025-02-24 12:31:53.338,2.2
-2,0,0,-3,-2,0,-2,-1,2025-02-24 12:31:53.349,2.2
-2,-1,-3,-1,-2,-1,-2,-1,2025-02-24 12:31:53.360,2.2
-3,-5,-4,-3,-5,-2,-1,-1,2025-02-24 12:31:53.371,2.2
0,2,2,0,-2,1,-1,0,2025-02-24 12:31:53.383,2.2
-1,-2,-2,-1,-4,0,-2,-1,2025-02-24 12:31:53.394,2.2
-1,-2,-2,-1,-4,0,-2,-1,2025-02-24 12:31:53.405,2.2
1,2,-1,0,-2,-1,-1,0,2025-02-24 12:31:53.416,2.2
-1,-2,-3,-2,-3,-2,-3,-2,2025-02-24 12:31:53.428,2.2
-1,-2,-3,-2,-3,-2,-3,-2,2025-02-24 12:31:53.438,2.2
-2,0,-1,-3,-2,0,0,-2,2025-02-24 12:31:53.452,2.2
-2,-2,0,2,-2,-1,-1,-1,2025-02-24 12:31:53.460,2.2
-2,-2,0,2,-2,-1,-1,-1,2025-02-24 12:31:53.472,2.2
0,-4,-2,-3,-5,0,0,-1,2025-02-24 12:31:53.483,2.2
0,1,-2,-1,-3,-2,-2,1,2025-02-24 12:31:53.495,2.2
-2,-3,-4,-3,-4,-1,-1,-2,2025-02-24 12:31:53.506,2.2
0,1,0,-1,-5,-2,-1,0,2025-02-24 12:31:53.517,2.2
0,3,-1,1,-3,-1,-2,-1,2025-02-24 12:31:53.528,2.2
0,-3,-2,0,-4,0,-1,-2,2025-02-24 12:31:53.539,2.2
0,-3,-2,0,-4,0,-1,-2,2025-02-24 12:31:53.550,2.2
-1,-3,-6,-4,-3,-3,-2,-3,2025-02-24 12:31:53.562,2.2
0,4,2,3,-2,-1,-1,-1,2025-02-24 12:31:53.573,2.2
1,3,-1,-1,-2,0,-1,-2,2025-02-24 12:31:53.584,2.2
1,3,-1,-1,-2,0,-1,-2,2025-02-24 12:31:53.596,2.2
0,-1,1,-2,-2,-1,0,0,2025-02-24 12:31:53.606,2.2
0,-1,1,-2,-2,-1,0,0,2025-02-24 12:31:53.617,2.2
-3,-4,-1,-1,-5,0,-2,-1,2025-02-24 12:31:53.629,2.2
2,0,-1,1,-3,0,-1,1,2025-02-24 12:31:53.640,2.2
-2,-2,-4,-3,-4,-3,-2,-2,2025-02-24 12:31:53.653,2.2
-1,-1,-1,-1,-3,-3,-1,-3,2025-02-24 12:31:53.662,2.2
-1,-1,-1,-1,-3,-3,-1,-3,2025-02-24 12:31:53.674,2.2
-2,-5,-6,-2,-4,-1,-1,-1,2025-02-24 12:31:53.685,2.2
2,1,0,-5,0,-1,-1,1,2025-02-24 12:31:53.696,2.2
-3,-1,3,1,-4,-1,-2,-1,2025-02-24 12:31:53.707,2.2
2,-2,-1,3,-1,0,-1,0,2025-02-24 12:31:53.718,2.2
0,1,-1,-2,-3,0,0,-1,2025-02-24 12:31:53.729,2.2
0,1,-1,-2,-3,0,0,-1,2025-02-24 12:31:53.741,2.2
0,1,-1,-2,-3,0,0,-1,2025-02-24 12:31:53.752,2.2
0,1,-1,-2,-3,0,0,-1,2025-02-24 12:31:53.763,2.2
0,1,-1,-2,-3,0,0,-1,2025-02-24 12:31:53.774,2.2
0,1,-1,-2,-3,0,0,-1,2025-02-24 12:31:53.785,2.2
0,-2,-8,-4,-1,-1,-1,0,2025-02-24 12:31:53.797,2.2
-2,-2,-2,-2,-3,-3,-2,0,2025-02-24 12:31:53.808,2.2
0,2,0,-1,-3,0,-1,-2,2025-02-24 12:31:53.818,2.2
0,-4,-2,-1,-2,-1,-1,-2,2025-02-24 12:31:53.830,2.2
0,0,-1,-2,-4,0,-2,-1,2025-02-24 12:31:53.841,2.2
0,0,-1,-2,-4,0,-2,-1,2025-02-24 12:31:53.854,2.2
0,0,-1,-2,-4,0,-2,-1,2025-02-24 12:31:53.863,2.2
3,-1,-3,1,-3,0,1,-2,2025-02-24 12:31:53.875,2.2
-2,-5,-5,-2,-5,-3,-2,-2,2025-02-24 12:31:53.886,2.2
-2,-5,-5,-2,-5,-3,-2,-2,2025-02-24 12:31:53.897,2.2
2,-4,-2,-3,-2,-2,-1,-1,2025-02-24 12:31:53.909,2.2
2,-4,-2,-3,-2,-2,-1,-1,2025-02-24 12:31:53.919,2.2
2,-4,-2,-3,-2,-2,-1,-1,2025-02-24 12:31:53.930,2.2
2,-4,-2,-3,-2,-2,-1,-1,2025-02-24 12:31:53.942,2.2
-1,0,0,-1,-1,0,-1,-2,2025-02-24 12:31:53.952,2.2
-5,-5,-5,-4,-2,-1,0,-3,2025-02-24 12:31:53.963,2.2
-5,-5,-5,-4,-2,-1,0,-3,2025-02-24 12:31:53.975,2.2
0,1,-1,2,-3,-1,-1,-1,2025-02-24 12:31:53.985,2.2
0,1,-1,2,-3,-1,-1,-1,2025-02-24 12:31:53.997,2.2
-3,2,0,-2,-2,0,-1,-2,2025-02-24 12:31:54.008,2.2
-3,2,0,-2,-2,0,-1,-2,2025-02-24 12:31:54.019,2.2
0,4,0,1,-3,-2,0,0,2025-02-24 12:31:54.030,2.2
1,-3,1,0,-4,-1,-1,-1,2025-02-24 12:31:54.042,2.2
1,-3,1,0,-4,-1,-1,-1,2025-02-24 12:31:54.055,2.2
1,-3,1,0,-4,-1,-1,-1,2025-02-24 12:31:54.064,2.2
-2,-1,-2,-1,-2,-1,-1,0,2025-02-24 12:31:54.075,2.2
-2,-1,-2,-1,-2,-1,-1,0,2025-02-24 12:31:54.086,2.2
0,-4,-2,-3,-3,-1,-2,-1,2025-02-24 12:31:54.097,2.2
-2,-1,-1,-1,-5,-4,-2,-2,2025-02-24 12:31:54.109,2.2
-2,-1,-1,-1,-5,-4,-2,-2,2025-02-24 12:31:54.120,2.2
-6,-8,-5,-7,-4,-2,-3,-2,2025-02-24 12:31:54.131,2.2
-2,-3,-2,-3,-4,-1,-1,-2,2025-02-24 12:31:54.143,2.2
3,1,0,0,-3,2,-1,2,2025-02-24 12:31:54.153,2.2
-3,-1,-1,-1,-3,-1,1,0,2025-02-24 12:31:54.165,2.2
-1,0,1,2,-2,-1,0,-3,2025-02-24 12:31:54.176,2.2
-1,-1,0,-1,-1,-2,0,1,2025-02-24 12:31:54.187,2.2
1,-5,-1,-2,-3,0,-1,-2,2025-02-24 12:31:54.198,2.2
-1,-1,-2,-2,-4,0,-1,-1,2025-02-24 12:31:54.209,2.2
4,0,-3,1,-2,-2,-3,0,2025-02-24 12:31:54.221,2.2
4,5,2,2,-1,-1,-1,-1,2025-02-24 12:31:54.232,2.2
-1,-2,-3,-2,-4,-2,-2,-2,2025-02-24 12:31:54.243,2.2
-2,2,-1,0,-2,0,-2,-1,2025-02-24 12:31:54.256,2.2
-4,-1,-2,0,-2,-2,-1,0,2025-02-24 12:31:54.265,2.2
-4,-1,-2,0,-2,-2,-1,0,2025-02-24 12:31:54.276,2.2
-3,-3,-2,-1,-3,0,-2,0,2025-02-24 12:31:54.288,2.2
-3,-3,-2,-1,-3,0,-2,0,2025-02-24 12:31:54.299,2.2
0,-3,-2,-1,-3,-2,-2,-1,2025-02-24 12:31:54.310,2.2
-2,4,1,1,-2,-1,0,0,2025-02-24 12:31:54.321,2.2
1,0,0,-1,-2,-1,0,-1,2025-02-24 12:31:54.332,2.2
0,0,-1,0,-2,-2,-2,-2,2025-02-24 12:31:54.343,2.2
0,0,-1,0,-2,-2,-2,-2,2025-02-24 12:31:54.354,2.2
0,0,-1,0,-2,-2,-2,-2,2025-02-24 12:31:54.366,2.2
0,0,-1,0,-2,-2,-2,-2,2025-02-24 12:31:54.377,2.2
2,0,-2,-2,-3,-2,-1,-1,2025-02-24 12:31:54.388,2.2
2,0,-2,-2,-3,-2,-1,-1,2025-02-24 12:31:54.399,2.2
-4,-4,-7,-7,-5,1,0,-1,2025-02-24 12:31:54.411,2.2
-4,-4,-7,-7,-5,1,0,-1,2025-02-24 12:31:54.422,2.2
-4,-1,0,1,-2,-2,-3,-1,2025-02-24 12:31:54.432,2.2
1,0,0,-1,-2,-2,-1,-1,2025-02-24 12:31:54.443,2.2
-1,-2,-2,0,-4,-1,-2,-1,2025-02-24 12:31:54.457,2.2
-2,-2,1,-1,-1,-1,-2,-2,2025-02-24 12:31:54.466,2.2
-2,-2,1,-1,-1,-1,-2,-2,2025-02-24 12:31:54.477,2.2
-2,-6,-5,-4,-3,-1,-2,-3,2025-02-24 12:31:54.488,2.2
-1,0,0,0,-2,0,0,-2,2025-02-24 12:31:54.500,2.2
0,0,1,0,-3,-1,-3,-2,2025-02-24 12:31:54.511,2.2
-3,-2,0,-1,-2,0,-1,-2,2025-02-24 12:31:54.522,2.2
-3,-2,0,-1,-2,0,-1,-2,2025-02-24 12:31:54.534,2.2
-1,1,-3,-1,-4,-1,0,-1,2025-02-24 12:31:54.545,2.2
-1,1,-3,-1,-4,-1,0,-1,2025-02-24 12:31:54.556,2.2
1,-2,0,-1,-3,-1,0,-1,2025-02-24 12:31:54.567,2.2
1,-2,0,-1,-3,-1,0,-1,2025-02-24 12:31:54.579,2.2
3,2,1,0,-2,0,-1,1,2025-02-24 12:31:54.589,2.2
3,2,1,0,-2,0,-1,1,2025-02-24 12:31:54.600,2.2
-1,0,0,0,-2,-2,0,-1,2025-02-24 12:31:54.611,2.2
-1,1,0,-2,-3,0,-1,0,2025-02-24 12:31:54.622,2.2
-1,-2,-1,0,-1,0,-1,0,2025-02-24 12:31:54.634,2.2
-1,-2,-1,0,-1,0,-1,0,2025-02-24 12:31:54.645,2.2
-1,-1,0,-1,-3,-1,-1,-3,2025-02-24 12:31:54.659,2.2
-2,1,-1,1,-3,-2,-2,0,2025-02-24 12:31:54.667,2.2
-2,1,-1,1,-3,-2,-2,0,2025-02-24 12:31:54.679,2.2
-2,1,-1,1,-3,-2,-2,0,2025-02-24 12:31:54.690,2.2
-5,-3,-2,0,-4,-2,1,-1,2025-02-24 12:31:54.701,2.2
-4,-13,-4,-4,-3,0,-2,-3,2025-02-24 12:31:54.712,2.2
-4,-13,-4,-4,-3,0,-2,-3,2025-02-24 12:31:54.724,2.2
-4,-13,-4,-4,-3,0,-2,-3,2025-02-24 12:31:54.734,2.2
0,2,0,-2,-3,-3,-3,0,2025-02-24 12:31:54.745,2.2
0,2,0,-2,-3,-3,-3,0,2025-02-24 12:31:54.757,2.2
0,2,0,-2,-3,-3,-3,0,2025-02-24 12:31:54.768,2.2
0,2,0,-2,-3,-3,-3,0,2025-02-24 12:31:54.779,2.2
0,2,0,-2,-3,-3,-3,0,2025-02-24 12:31:54.790,2.2
-2,-2,-1,-2,-3,-2,-3,-3,2025-02-24 12:31:54.802,2.2
-2,-2,-1,-2,-3,-2,-3,-3,2025-02-24 12:31:54.813,2.2
0,-1,-1,2,-3,-1,-1,-1,2025-02-24 12:31:54.824,2.2
0,-1,-1,2,-3,-1,-1,-1,2025-02-24 12:31:54.835,2.2
-2,-2,-2,-3,-2,0,0,1,2025-02-24 12:31:54.846,2.2
-2,-2,-2,-3,-2,0,0,1,2025-02-24 12:31:54.859,2.2
-3,-5,0,-2,-2,-1,-2,0,2025-02-24 12:31:54.868,2.2
-3,-5,0,-2,-2,-1,-2,0,2025-02-24 12:31:54.880,2.2
-1,-1,-1,-1,-3,-2,-1,-3,2025-02-24 12:31:54.891,2.2
-2,-1,0,-2,-4,-1,-1,0,2025-02-24 12:31:54.902,2.2
-1,-5,-4,-4,-2,-2,0,-3,2025-02-24 12:31:54.913,2.2
-1,-5,-4,-4,-2,-2,0,-3,2025-02-24 12:31:54.924,2.2
-1,-5,-4,-4,-2,-2,0,-3,2025-02-24 12:31:54.935,2.2
-1,0,-2,1,-3,0,0,-2,2025-02-24 12:31:54.946,2.2
-2,1,-2,1,-1,0,-1,-1,2025-02-24 12:31:54.958,2.2
-2,1,-2,1,-1,0,-1,-1,2025-02-24 12:31:54.969,2.2
-5,-1,0,0,-2,-1,-1,-1,2025-02-24 12:31:54.980,2.2
-3,0,1,-1,-2,-1,-2,-1,2025-02-24 12:31:54.991,2.2
-1,-3,-2,-1,-3,0,0,0,2025-02-24 12:31:55.002,2.2
-1,-2,1,-1,-3,-1,-1,0,2025-02-24 12:31:55.014,2.2
2,0,2,1,-3,-1,-1,-1,2025-02-24 12:31:55.025,2.2
2,0,2,1,-3,-1,-1,-1,2025-02-24 12:31:55.036,2.2
0,0,1,0,-3,-1,-1,-1,2025-02-24 12:31:55.047,2.2
0,0,1,0,-3,-1,-1,-1,2025-02-24 12:31:55.061,2.2
-1,1,-2,-1,-2,0,-1,-1,2025-02-24 12:31:55.070,2.2
-1,1,-2,-1,-2,0,-1,-1,2025-02-24 12:31:55.081,2.2
-1,1,-2,-1,-2,0,-1,-1,2025-02-24 12:31:55.093,2.2
-1,1,-2,-1,-2,0,-1,-1,2025-02-24 12:31:55.103,2.2
-1,-1,-3,-3,-5,0,-1,1,2025-02-24 12:31:55.115,2.2
-1,-1,-3,-3,-5,0,-1,1,2025-02-24 12:31:55.126,2.2
1,5,0,-1,-1,1,-1,0,2025-02-24 12:31:55.137,2.2
2,-2,-2,0,-3,0,-1,0,2025-02-24 12:31:55.148,2.2
2,-2,-2,0,-3,0,-1,0,2025-02-24 12:31:55.159,2.2
2,-2,-2,0,-3,0,-1,0,2025-02-24 12:31:55.169,2.2
-2,-1,-1,1,-3,-1,0,-3,2025-02-24 12:31:55.181,2.2
-5,-13,-5,-4,-5,-4,-1,-2,2025-02-24 12:31:55.192,2.2
-5,-13,-5,-4,-5,-4,-1,-2,2025-02-24 12:31:55.203,2.2
0,-3,-3,-2,-4,-3,-3,0,2025-02-24 12:31:55.214,2.2
-2,-4,-2,1,-1,-1,-1,-2,2025-02-24 12:31:55.226,2.2
-1,1,1,1,-2,-1,-3,-1,2025-02-24 12:31:55.237,2.2
-6,2,1,-1,-4,-2,-1,-1,2025-02-24 12:31:55.248,2.2
-4,-1,-1,-3,-3,-1,-1,-3,2025-02-24 12:31:55.261,2.2
-4,-1,-3,-1,-3,-1,1,-1,2025-02-24 12:31:55.270,2.2
-4,-1,-3,-1,-3,-1,1,-1,2025-02-24 12:31:55.282,2.2
-2,-1,-1,-2,-3,1,-1,0,2025-02-24 12:31:55.293,2.2
-2,-1,-1,-2,-3,1,-1,0,2025-02-24 12:31:55.304,2.2
0,-4,-4,-2,-3,-1,-1,-1,2025-02-24 12:31:55.315,2.2
0,-4,-4,-2,-3,-1,-1,-1,2025-02-24 12:31:55.326,2.2
-8,-13,-9,-7,-3,-1,-1,-2,2025-02-24 12:31:55.338,2.2
-1,0,-2,0,-2,0,0,-3,2025-02-24 12:31:55.349,2.2
0,1,1,0,-2,-2,-1,-1,2025-02-24 12:31:55.359,2.2
3,3,1,1,-4,-1,0,2,2025-02-24 12:31:55.371,2.2
3,3,1,1,-4,-1,0,2,2025-02-24 12:31:55.382,2.2
0,1,-5,-2,0,1,-1,0,2025-02-24 12:31:55.393,2.2
0,1,-5,-2,0,1,-1,0,2025-02-24 12:31:55.404,2.2
-1,0,-2,-1,-2,-2,-1,-1,2025-02-24 12:31:55.415,2.2
-4,-1,1,2,-3,-2,-2,0,2025-02-24 12:31:55.427,2.2
-4,-2,-2,-2,-3,-2,-2,-2,2025-02-24 12:31:55.438,2.2
-2,-10,-1,-1,-3,0,-2,0,2025-02-24 12:31:55.449,2.2
-2,-10,-1,-1,-3,0,-2,0,2025-02-24 12:31:55.462,2.2
0,-2,0,-2,-3,-2,-2,-3,2025-02-24 12:31:55.471,2.2
-2,-3,-1,0,-2,0,-1,-1,2025-02-24 12:31:55.483,2.2
-1,-2,-2,-3,-2,-1,-1,-1,2025-02-24 12:31:55.494,2.2
0,0,-5,-2,-4,-1,0,-3,2025-02-24 12:31:55.505,2.2
-1,4,1,1,-3,0,1,-1,2025-02-24 12:31:55.516,2.2
3,-3,-1,-3,-3,-3,-2,-3,2025-02-24 12:31:55.527,2.2
0,-2,1,0,-2,0,-1,-2,2025-02-24 12:31:55.539,2.2
-1,2,1,0,-4,-2,0,-1,2025-02-24 12:31:55.550,2.2
-1,2,1,0,-4,-2,0,-1,2025-02-24 12:31:55.561,2.2
-3,-1,-2,0,-2,0,-2,-1,2025-02-24 12:31:55.572,2.2
-3,-1,-2,0,-2,0,-2,-1,2025-02-24 12:31:55.583,2.2
-4,-1,-1,-2,-1,1,-1,0,2025-02-24 12:31:55.595,2.2
-3,0,1,0,-3,-2,0,-1,2025-02-24 12:31:55.605,2.2
-5,-8,-1,-3,-4,-1,1,-2,2025-02-24 12:31:55.616,2.2
-4,-3,-2,-1,-4,-1,-1,-1,2025-02-24 12:31:55.628,2.2
-4,-3,-2,-1,-4,-1,-1,-1,2025-02-24 12:31:55.639,2.2
-2,-2,-3,-2,-3,0,0,-3,2025-02-24 12:31:55.650,2.2
-2,0,0,-2,-3,1,-3,0,2025-02-24 12:31:55.664,2.2
-2,0,0,-2,-3,1,-3,0,2025-02-24 12:31:55.672,2.2
-2,0,0,-2,-3,1,-3,0,2025-02-24 12:31:55.684,2.2
6,0,-1,-1,-2,-1,-2,-2,2025-02-24 12:31:55.695,2.2
-4,0,-1,2,-3,-1,1,1,2025-02-24 12:31:55.707,2.2
-3,0,0,1,-2,-1,0,-1,2025-02-24 12:31:55.718,2.2
-2,-1,-3,-3,-4,-1,1,-1,2025-02-24 12:31:55.729,2.2
0,-1,-1,0,-4,-2,-1,0,2025-02-24 12:31:55.739,2.2
-1,1,2,1,-1,-2,-1,0,2025-02-24 12:31:55.750,2.2
-1,1,2,1,-1,-2,-1,0,2025-02-24 12:31:55.762,2.2
-4,-1,-2,0,-3,-3,-1,-1,2025-02-24 12:31:55.773,2.2
-4,-1,-2,0,-3,-3,-1,-1,2025-02-24 12:31:55.784,2.2
-4,-1,-2,0,-3,-3,-1,-1,2025-02-24 12:31:55.795,2.2
-4,-1,-2,0,-3,-3,-1,-1,2025-02-24 12:31:55.806,2.2
0,2,1,0,-2,-2,-1,-2,2025-02-24 12:31:55.818,2.2
0,0,-1,-1,-3,-1,-2,-1,2025-02-24 12:31:55.829,2.2
0,0,-1,-1,-3,-1,-2,-1,2025-02-24 12:31:55.841,2.2
0,0,-1,-1,-3,-1,-2,-1,2025-02-24 12:31:55.852,2.2
0,0,-1,-1,-3,-1,-2,-1,2025-02-24 12:31:55.866,2.2
0,0,-1,-1,-3,-1,-2,-1,2025-02-24 12:31:55.874,2.2
-1,-2,-1,0,-4,2,-1,0,2025-02-24 12:31:55.885,2.2
-1,-1,-2,-1,-2,-2,-2,-1,2025-02-24 12:31:55.897,2.2
-2,-4,-3,-4,-3,-1,-2,-1,2025-02-24 12:31:55.908,2.2
-2,-4,-3,-4,-3,-1,-2,-1,2025-02-24 12:31:55.919,2.2
-2,-4,-3,-4,-3,-1,-2,-1,2025-02-24 12:31:55.929,2.2
1,4,0,0,-3,0,-2,0,2025-02-24 12:31:55.941,2.2
0,0,-1,0,-2,-1,-2,-3,2025-02-24 12:31:55.952,2.2
1,1,0,1,-2,-2,-1,-1,2025-02-24 12:31:55.963,2.2
1,1,0,1,-2,-2,-1,-1,2025-02-24 12:31:55.975,2.2
-1,0,-1,-1,-2,-1,-2,0,2025-02-24 12:31:55.986,2.2
0,3,-1,0,-2,-2,2,0,2025-02-24 12:31:55.997,2.2
3,-1,0,-1,-3,0,-1,0,2025-02-24 12:31:56.008,2.2
3,-1,0,-1,-3,0,-1,0,2025-02-24 12:31:56.019,2.2
3,-1,0,-1,-3,0,-1,0,2025-02-24 12:31:56.030,2.2
0,3,-1,2,-2,-1,-1,0,2025-02-24 12:31:56.041,0.0
2,3,1,0,-3,1,0,0,2025-02-24 12:31:56.052,0.0
2,3,1,0,-3,1,0,0,2025-02-24 12:31:56.066,0.0
-5,0,-1,-1,-3,-2,-1,-1,2025-02-24 12:31:56.075,0.0
-5,0,-1,-1,-3,-2,-1,-1,2025-02-24 12:31:56.086,0.0
-5,-7,-1,-4,-5,0,-2,-3,2025-02-24 12:31:56.098,0.0
-2,1,0,-2,-4,-2,-3,-1,2025-02-24 12:31:56.108,0.0
-2,1,0,-2,-4,-2,-3,-1,2025-02-24 12:31:56.119,0.0
-2,1,0,1,-2,-3,-1,0,2025-02-24 12:31:56.131,0.0
-2,1,0,1,-2,-3,-1,0,2025-02-24 12:31:56.141,0.0
-2,1,0,1,-2,-3,-1,0,2025-02-24 12:31:56.153,0.0
-2,-1,-3,-1,-3,-1,-2,-2,2025-02-24 12:31:56.164,0.0
1,-4,1,0,-3,0,-1,-3,2025-02-24 12:31:56.175,0.0
0,5,2,0,-4,-1,-1,1,2025-02-24 12:31:56.186,0.0
0,5,2,0,-4,-1,-1,1,2025-02-24 12:31:56.197,0.0
0,2,0,1,-1,-1,-1,-1,2025-02-24 12:31:56.209,0.0
-2,-10,-5,-6,-3,-1,0,-3,2025-02-24 12:31:56.220,0.0
0,0,-1,-3,-4,-1,-1,-2,2025-02-24 12:31:56.231,0.0
0,0,-1,-3,-4,-1,-1,-2,2025-02-24 12:31:56.243,0.0
0,-5,0,-4,-6,-2,-1,-1,2025-02-24 12:31:56.254,0.0
0,-5,0,-4,-6,-2,-1,-1,2025-02-24 12:31:56.267,0.0
1,0,-1,0,-1,0,-1,0,2025-02-24 12:31:56.276,0.0
-1,1,-1,-1,-2,-1,-2,0,2025-02-24 12:31:56.287,0.0
5,1,-2,0,-2,-1,0,0,2025-02-24 12:31:56.299,0.0
5,1,-2,0,-2,-1,0,0,2025-02-24 12:31:56.309,0.0
-1,1,1,2,-3,0,0,-2,2025-02-24 12:31:56.320,0.0
-1,-1,0,-1,-2,-3,-1,-2,2025-02-24 12:31:56.331,0.0
-1,-1,0,-1,-2,-3,-1,-2,2025-02-24 12:31:56.343,0.0
-1,-1,0,-1,-2,-3,-1,-2,2025-02-24 12:31:56.354,0.0
-3,1,-2,0,-4,-2,-1,-1,2025-02-24 12:31:56.365,0.0
-2,-3,-1,-2,-2,-2,-1,0,2025-02-24 12:31:56.377,0.0
-2,-3,-1,-2,-2,-2,-1,0,2025-02-24 12:31:56.388,0.0
-1,4,1,-2,-1,-1,0,-1,2025-02-24 12:31:56.399,0.0
-1,-1,1,-2,-3,-1,-2,-1,2025-02-24 12:31:56.410,0.0
0,-1,-1,-1,-2,-2,-2,-1,2025-02-24 12:31:56.421,0.0
0,-1,-1,-1,-2,-2,-2,-1,2025-02-24 12:31:56.433,0.0
-2,-5,-4,-3,-4,1,-1,0,2025-02-24 12:31:56.443,0.0
1,-2,-2,-1,-1,1,-2,-1,2025-02-24 12:31:56.455,0.0
-3,-2,-1,-1,-3,-1,-1,1,2025-02-24 12:31:56.468,0.0
-5,-7,-6,-4,-5,-3,-1,-1,2025-02-24 12:31:56.477,0.0
-1,-2,-4,-1,-4,-2,-2,-2,2025-02-24 12:31:56.488,0.0
2,-2,0,0,-3,-2,-3,-2,2025-02-24 12:31:56.499,0.0
1,0,-3,1,-3,0,-1,0,2025-02-24 12:31:56.511,0.0
0,-2,1,0,-2,0,-1,-1,2025-02-24 12:31:56.522,0.0
-4,-6,-2,-3,-3,-2,0,-1,2025-02-24 12:31:56.533,0.0
-4,-6,-2,-3,-3,-2,0,-1,2025-02-24 12:31:56.544,0.0
-2,-4,0,-2,-3,-2,0,-3,2025-02-24 12:31:56.555,0.0
-2,-4,0,-2,-3,-2,0,-3,2025-02-24 12:31:56.566,0.0
-1,2,1,0,-2,-1,-1,0,2025-02-24 12:31:56.577,0.0
-1,2,1,0,-2,-1,-1,0,2025-02-24 12:31:56.588,0.0
2,8,5,2,-3,-1,-1,1,2025-02-24 12:31:56.600,0.0
-9,-3,1,0,-2,-2,-1,0,2025-02-24 12:31:56.611,0.0
-4,-4,-4,-2,-4,-2,1,-1,2025-02-24 12:31:56.622,0.0
0,0,-3,0,-2,-1,-1,0,2025-02-24 12:31:56.633,0.0
-5,-4,-3,-2,-4,1,-1,-2,2025-02-24 12:31:56.645,0.0
1,1,2,-1,-2,-1,-1,-3,2025-02-24 12:31:56.656,0.0
0,1,-1,-3,-3,0,-3,-1,2025-02-24 12:31:56.670,0.0
0,1,-1,-3,-3,0,-3,-1,2025-02-24 12:31:56.678,0.0
-3,-1,0,-2,-4,-2,-1,-1,2025-02-24 12:31:56.690,0.0
-3,-1,0,-2,-4,-2,-1,-1,2025-02-24 12:31:56.700,0.0
-3,-1,0,-2,-4,-2,-1,-1,2025-02-24 12:31:56.711,0.0
1,3,0,-1,-1,-2,-2,-1,2025-02-24 12:31:56.722,0.0
-1,1,-3,-1,-3,1,-2,1,2025-02-24 12:31:56.733,0.0
-1,1,-3,-1,-3,1,-2,1,2025-02-24 12:31:56.745,0.0
-1,1,-3,-1,-3,1,-2,1,2025-02-24 12:31:56.757,0.0
-1,1,-3,-1,-3,1,-2,1,2025-02-24 12:31:56.768,0.0
-9,-3,-3,-3,-2,0,-1,-2,2025-02-24 12:31:56.779,0.0
2,-2,-3,-2,-2,-1,0,-1,2025-02-24 12:31:56.790,0.0
2,-2,-3,-2,-2,-1,0,-1,2025-02-24 12:31:56.801,0.0
-3,-2,0,1,-2,1,1,-2,2025-02-24 12:31:56.812,0.0
-3,-2,0,1,-2,1,1,-2,2025-02-24 12:31:56.824,0.0
-3,-2,0,1,-2,1,1,-2,2025-02-24 12:31:56.835,0.0
0,-2,-2,-3,-2,-1,-3,-1,2025-02-24 12:31:56.846,0.0
0,1,2,0,-1,-1,1,0,2025-02-24 12:31:56.857,0.0
0,1,2,0,-1,-1,1,0,2025-02-24 12:31:56.871,0.0
0,1,2,0,-1,-1,1,0,2025-02-24 12:31:56.879,0.0
1,0,1,-1,-3,-2,-2,-1,2025-02-24 12:31:56.891,0.0
2,1,1,2,-3,-1,0,-1,2025-02-24 12:31:56.901,0.0
-2,0,-2,1,-4,-1,-3,-1,2025-02-24 12:31:56.913,0.0
-2,0,-2,1,-4,-1,-3,-1,2025-02-24 12:31:56.924,0.0
-10,-1,2,-1,-4,-1,0,-3,2025-02-24 12:31:56.935,0.0
-10,-1,2,-1,-4,-1,0,-3,2025-02-24 12:31:56.946,0.0
1,-2,0,0,-2,-2,0,-1,2025-02-24 12:31:56.958,0.0
1,1,-1,2,-2,-1,0,-2,2025-02-24 12:31:56.969,0.0
2,-1,0,-3,-2,0,-1,0,2025-02-24 12:31:56.980,0.0
2,-1,0,-3,-2,0,-1,0,2025-02-24 12:31:56.991,0.0
2,-1,0,-3,-2,0,-1,0,2025-02-24 12:31:57.002,0.0
1,-2,-2,-1,-2,-1,0,-1,2025-02-24 12:31:57.013,0.0
-2,-4,-2,-2,-4,-1,-2,-1,2025-02-24 12:31:57.025,0.0
-4,0,1,-1,-4,-2,-1,-2,2025-02-24 12:31:57.036,0.0
-4,0,1,-1,-4,-2,-1,-2,2025-02-24 12:31:57.046,0.0
-4,-1,0,-1,-3,0,1,-1,2025-02-24 12:31:57.058,0.0
-4,-1,0,-1,-3,0,1,-1,2025-02-24 12:31:57.071,0.0
0,2,1,1,-2,-2,0,-1,2025-02-24 12:31:57.080,0.0
-5,-3,-2,-4,-2,-2,-1,0,2025-02-24 12:31:57.092,0.0
1,0,-1,-1,-3,-1,-2,-3,2025-02-24 12:31:57.102,0.0
1,0,-1,-1,-3,-1,-2,-3,2025-02-24 12:31:57.113,0.0
-2,-3,-1,-1,-2,-2,-1,-1,2025-02-24 12:31:57.125,0.0
-2,-5,-3,-1,-3,-2,-1,-1,2025-02-24 12:31:57.135,0.0
-2,-5,-3,-1,-3,-2,-1,-1,2025-02-24 12:31:57.147,0.0
-1,1,-4,-2,-4,-1,-1,-2,2025-02-24 12:31:57.158,0.0
0,-1,-1,-1,-3,0,-3,-1,2025-02-24 12:31:57.169,0.0
0,0,-1,-2,-3,-1,-1,0,2025-02-24 12:31:57.180,0.0
-1,0,1,-1,-3,-1,-2,0,2025-02-24 12:31:57.192,0.0
-2,-2,-1,0,-2,-2,-1,-2,2025-02-24 12:31:57.203,0.0
2,0,0,1,-4,1,0,0,2025-02-24 12:31:57.214,0.0
2,0,0,1,-4,1,0,0,2025-02-24 12:31:57.225,0.0
-8,-2,-2,0,-3,0,-2,-1,2025-02-24 12:31:57.237,0.0
3,0,-1,-2,-4,-3,0,-1,2025-02-24 12:31:57.247,0.0
3,0,-1,-2,-4,-3,0,-1,2025-02-24 12:31:57.259,0.0
3,0,-1,-2,-4,-3,0,-1,2025-02-24 12:31:57.273,0.0
-3,-6,-3,-1,-3,0,-1,-1,2025-02-24 12:31:57.281,0.0
1,1,2,-1,-2,-1,-1,-1,2025-02-24 12:31:57.293,0.0
1,1,2,-1,-2,-1,-1,-1,2025-02-24 12:31:57.304,0.0
0,-1,-1,-2,-3,-2,0,-1,2025-02-24 12:31:57.315,0.0
-1,-2,-1,0,-2,0,-1,-1,2025-02-24 12:31:57.326,0.0
-3,-3,-1,-2,-3,-1,0,-2,2025-02-24 12:31:57.337,0.0
0,-1,0,-2,-3,-1,-1,-1,2025-02-24 12:31:57.348,0.0
-2,-2,-1,-1,-3,-3,0,-1,2025-02-24 12:31:57.359,0.0
-1,0,-3,0,-3,0,-2,-1,2025-02-24 12:31:57.370,0.0
-1,0,-3,0,-3,0,-2,-1,2025-02-24 12:31:57.382,0.0
-1,0,-2,-1,-2,-1,-2,-1,2025-02-24 12:31:57.393,0.0
-3,-2,-1,-2,-2,0,-1,-1,2025-02-24 12:31:57.404,0.0
1,2,-1,0,-2,-2,0,1,2025-02-24 12:31:57.415,0.0
1,2,-1,0,-2,-2,0,1,2025-02-24 12:31:57.427,0.0
0,-1,0,-1,-2,-1,-2,0,2025-02-24 12:31:57.437,0.0
-2,-1,2,-1,-3,-2,0,0,2025-02-24 12:31:57.449,0.0
-2,-4,-1,-2,-4,0,-1,-1,2025-02-24 12:31:57.460,0.0
1,0,-1,-3,-4,-4,-1,-1,2025-02-24 12:31:57.473,0.0
1,0,-1,-3,-4,-4,-1,-1,2025-02-24 12:31:57.482,0.0
-1,-4,-4,0,-3,2,-1,-3,2025-02-24 12:31:57.493,0.0
1,-4,-1,-1,-4,-1,0,-2,2025-02-24 12:31:57.504,0.0
-1,-2,-3,-3,-2,-1,0,0,2025-02-24 12:31:57.515,0.0
-1,-2,-3,-3,-2,-1,0,0,2025-02-24 12:31:57.527,0.0
-2,0,-2,-1,-3,-1,0,-2,2025-02-24 12:31:57.538,0.0
-2,0,-2,-1,-3,-1,0,-2,2025-02-24 12:31:57.549,0.0
-2,-2,-3,-1,-3,-1,-1,0,2025-02-24 12:31:57.561,0.0
-1,0,-2,0,-2,0,-1,-2,2025-02-24 12:31:57.572,0.0
-4,1,0,-1,-1,-2,-1,-2,2025-02-24 12:31:57.583,0.0
1,5,3,-1,-2,-2,0,2,2025-02-24 12:31:57.594,0.0
1,5,3,-1,-2,-2,0,2,2025-02-24 12:31:57.605,0.0
-2,-1,1,1,-2,0,0,0,2025-02-24 12:31:57.617,0.0
-1,-4,-2,-2,0,-1,-2,-2,2025-02-24 12:31:57.628,0.0
-1,-4,-2,-2,0,-1,-2,-2,2025-02-24 12:31:57.639,0.0
-1,-4,-2,-2,0,-1,-2,-2,2025-02-24 12:31:57.650,0.0
-1,-4,-2,-2,0,-1,-2,-2,2025-02-24 12:31:57.661,0.0
-1,-4,-2,-2,0,-1,-2,-2,2025-02-24 12:31:57.675,0.0
1,1,-1,0,-3,-1,-2,1,2025-02-24 12:31:57.683,0.0
1,1,-1,0,-3,-1,-2,1,2025-02-24 12:31:57.694,0.0
1,1,-1,0,-3,-1,-2,1,2025-02-24 12:31:57.706,0.0
-1,-1,-3,-1,-2,-1,0,-1,2025-02-24 12:31:57.717,0.0
-2,-2,-1,-1,-3,-2,-2,-1,2025-02-24 12:31:57.728,0.0
0,1,1,2,-4,-1,-2,-1,2025-02-24 12:31:57.739,0.0
-2,-4,-3,-1,-2,0,0,-3,2025-02-24 12:31:57.750,0.0
-2,-3,-1,-1,-3,-3,-1,-2,2025-02-24 12:31:57.761,0.0
-1,1,-2,1,-4,-1,-2,0,2025-02-24 12:31:57.772,0.0
-1,1,-2,1,-4,-1,-2,0,2025-02-24 12:31:57.784,0.0
-1,1,-2,1,-4,-1,-2,0,2025-02-24 12:31:57.795,0.0
-1,1,-2,1,-4,-1,-2,0,2025-02-24 12:31:57.806,0.0
-3,-5,-1,-1,1,0,0,-2,2025-02-24 12:31:57.817,0.0
-3,-5,-1,-1,1,0,0,-2,2025-02-24 12:31:57.828,0.0
-2,-3,-1,-3,-6,-2,-1,-1,2025-02-24 12:31:57.840,0.0
-2,-3,-3,-4,-4,0,-3,-2,2025-02-24 12:31:57.851,0.0
-1,-3,-5,-2,-3,-1,-1,-1,2025-02-24 12:31:57.862,0.0
-1,0,1,0,-1,-1,-1,-1,2025-02-24 12:31:57.876,0.0
-1,0,1,0,-1,-1,-1,-1,2025-02-24 12:31:57.884,0.0
-1,0,1,0,-1,-1,-1,-1,2025-02-24 12:31:57.896,0.0
0,1,1,1,-3,-1,-1,-1,2025-02-24 12:31:57.908,0.0
1,-5,-2,-2,-2,-1,-1,-1,2025-02-24 12:31:57.918,0.0
1,-5,-2,-2,-2,-1,-1,-1,2025-02-24 12:31:57.929,0.0
-1,2,1,-1,-2,-1,0,-2,2025-02-24 12:31:57.940,0.0
-1,2,1,-1,-2,-1,0,-2,2025-02-24 12:31:57.952,0.0
-1,2,1,-1,-2,-1,0,-2,2025-02-24 12:31:57.963,0.0
-1,2,1,-1,-2,-1,0,-2,2025-02-24 12:31:57.974,0.0
0,-6,-3,-1,-3,-1,-2,-1,2025-02-24 12:31:57.985,0.0
-4,-2,-6,-2,-4,-1,-1,-1,2025-02-24 12:31:57.996,0.0
1,3,3,2,-1,-1,0,-1,2025-02-24 12:31:58.008,0.0
-3,-3,-2,-2,-4,-1,-2,1,2025-02-24 12:31:58.019,0.0
-3,-3,-2,-2,-4,-1,-2,1,2025-02-24 12:31:58.030,0.0
0,-1,-1,-2,-2,0,0,0,2025-02-24 12:31:58.042,0.0
0,1,-2,-2,-3,-1,-1,-2,2025-02-24 12:31:58.052,0.0
-5,-7,-2,-2,-2,-5,-2,-3,2025-02-24 12:31:58.063,0.0
-5,-7,-2,-2,-2,-5,-2,-3,2025-02-24 12:31:58.077,0.0
-1,-1,0,-1,-1,-2,-2,-1,2025-02-24 12:31:58.085,0.0
-1,0,-2,0,-3,-1,0,0,2025-02-24 12:31:58.096,0.0
-1,0,-2,0,-3,-1,0,0,2025-02-24 12:31:58.108,0.0
-2,0,0,-3,-5,-1,0,-4,2025-02-24 12:31:58.119,0.0
-2,0,0,-3,-5,-1,0,-4,2025-02-24 12:31:58.130,0.0
-2,0,0,-3,-5,-1,0,-4,2025-02-24 12:31:58.142,0.0
1,-1,-3,1,-3,-1,-1,1,2025-02-24 12:31:58.153,0.0
0,2,0,-1,-4,-1,-1,0,2025-02-24 12:31:58.164,0.0
1,1,0,-1,-2,-1,-1,-1,2025-02-24 12:31:58.176,0.0
1,1,0,-1,-2,-1,-1,-1,2025-02-24 12:31:58.186,0.0
0,0,-1,0,-3,-1,-2,0,2025-02-24 12:31:58.197,0.0
0,0,-1,0,-3,-1,-2,0,2025-02-24 12:31:58.209,0.0
0,-3,-3,-2,-3,0,-1,0,2025-02-24 12:31:58.219,0.0
0,-3,-3,-2,-3,0,-1,0,2025-02-24 12:31:58.232,0.0
0,-3,1,-1,-2,-3,-2,-1,2025-02-24 12:31:58.243,0.0
0,-3,1,-1,-2,-3,-2,-1,2025-02-24 12:31:58.252,0.0
-3,-4,-3,-3,-3,-2,-1,0,2025-02-24 12:31:58.264,0.0
-4,-4,-2,-4,-3,-1,-2,-3,2025-02-24 12:31:58.278,0.0
-4,-4,-2,-4,-3,-1,-2,-3,2025-02-24 12:31:58.286,0.0
-4,-4,-2,-4,-3,-1,-2,-3,2025-02-24 12:31:58.298,0.0
-3,-8,-5,-6,-6,-4,-2,-1,2025-02-24 12:31:58.309,0.0
-2,0,-2,-2,-2,1,0,-1,2025-02-24 12:31:58.320,0.0
1,3,1,1,-2,-1,-2,-2,2025-02-24 12:31:58.332,0.0
1,3,1,1,-2,-1,-2,-2,2025-02-24 12:31:58.343,0.0
1,1,2,2,1,-1,-1,-2,2025-02-24 12:31:58.354,0.0
0,1,1,-1,-3,0,0,-1,2025-02-24 12:31:58.365,0.0
1,-2,-1,-2,-5,-1,0,1,2025-02-24 12:31:58.376,0.0
-2,0,0,-2,-2,1,-1,-2,2025-02-24 12:31:58.387,0.0
-1,-4,-2,0,-2,-3,-1,-1,2025-02-24 12:31:58.399,0.0
-1,-4,-2,0,-2,-3,-1,-1,2025-02-24 12:31:58.410,0.0
-2,0,-1,-1,-3,0,-2,-1,2025-02-24 12:31:58.421,0.0
-3,-3,-3,-1,-2,1,0,-1,2025-02-24 12:31:58.432,0.0
-1,-4,-3,-3,-3,-3,-1,0,2025-02-24 12:31:58.443,0.0
0,0,-1,1,-3,-3,-2,0,2025-02-24 12:31:58.453,0.0
0,0,-1,1,-3,-3,-2,0,2025-02-24 12:31:58.465,0.0
0,-1,-3,-2,-2,-2,0,-2,2025-02-24 12:31:58.479,0.0
-2,-1,-4,-1,-5,-1,-2,0,2025-02-24 12:31:58.487,0.0
-2,-1,-4,-1,-5,-1,-2,0,2025-02-24 12:31:58.498,0.0
1,2,-1,1,-2,-2,-1,1,2025-02-24 12:31:58.509,0.0
-2,-2,-3,-3,-5,-2,-2,-1,2025-02-24 12:31:58.521,0.0
-4,-4,-5,-4,-6,-2,-1,-2,2025-02-24 12:31:58.532,0.0
-1,-2,1,1,-4,-2,0,-1,2025-02-24 12:31:58.543,0.0
-1,-1,-1,-1,-2,0,0,1,2025-02-24 12:31:58.554,0.0
-1,-1,-1,-1,-2,0,0,1,2025-02-24 12:31:58.565,0.0
-1,-1,-1,-1,-2,0,0,1,2025-02-24 12:31:58.577,0.0
-1,-1,-1,-1,-2,0,0,1,2025-02-24 12:31:58.588,0.0
-1,-1,-1,-1,-2,0,0,1,2025-02-24 12:31:58.599,0.0
-1,0,-1,0,8,-3,0,-3,2025-02-24 12:31:58.611,0.0
-1,0,-1,0,8,-3,0,-3,2025-02-24 12:31:58.622,0.0
-1,0,-1,0,8,-3,0,-3,2025-02-24 12:31:58.633,0.0
-1,0,-1,0,8,-3,0,-3,2025-02-24 12:31:58.643,0.0
-1,0,-1,0,8,-3,0,-3,2025-02-24 12:31:58.655,0.0
-1,0,-1,0,8,-3,0,-3,2025-02-24 12:31:58.666,0.0
1,0,-1,-11,2,1,-2,-1,2025-02-24 12:31:58.680,0.0
1,0,-1,-11,2,1,-2,-1,2025-02-24 12:31:58.688,0.0
1,0,-1,-11,2,1,-2,-1,2025-02-24 12:31:58.699,0.0
1,0,-1,-11,2,1,-2,-1,2025-02-24 12:31:58.711,0.0
-2,-2,-3,-9,-20,-6,-1,0,2025-02-24 12:31:58.722,0.0
-2,-2,-3,-9,-20,-6,-1,0,2025-02-24 12:31:58.733,0.0
-3,-4,-5,-19,-51,-26,-6,-1,2025-02-24 12:31:58.744,0.0
-3,-4,-5,-19,-51,-26,-6,-1,2025-02-24 12:31:58.756,0.0
-3,-4,-5,-19,-51,-26,-6,-1,2025-02-24 12:31:58.767,0.0
-3,-4,-5,-19,-51,-26,-6,-1,2025-02-24 12:31:58.778,0.0
0,0,3,25,3,3,9,0,2025-02-24 12:31:58.790,0.0
0,0,3,25,3,3,9,0,2025-02-24 12:31:58.801,0.0
0,0,3,25,3,3,9,0,2025-02-24 12:31:58.812,0.0
0,0,3,25,3,3,9,0,2025-02-24 12:31:58.823,0.0
0,0,3,25,3,3,9,0,2025-02-24 12:31:58.833,0.0
0,0,3,25,3,3,9,0,2025-02-24 12:31:58.844,0.0
-1,-1,-4,-9,-57,-16,-2,-1,2025-02-24 12:31:58.856,0.0
3,2,9,72,30,22,3,5,2025-02-24 12:31:58.867,0.0
3,2,9,72,30,22,3,5,2025-02-24 12:31:58.881,0.0
5,3,7,14,23,4,6,3,2025-02-24 12:31:58.890,0.0
5,3,7,14,23,4,6,3,2025-02-24 12:31:58.901,0.0
0,0,-2,13,-12,6,0,0,2025-02-24 12:31:58.912,0.0
0,0,-2,13,-12,6,0,0,2025-02-24 12:31:58.923,0.0
0,0,-2,13,-12,6,0,0,2025-02-24 12:31:58.935,0.0
-4,-5,-7,2,46,-8,-6,-2,2025-02-24 12:31:58.946,0.0
1,3,5,6,19,17,4,3,2025-02-24 12:31:58.957,0.0
-3,-4,-6,-17,-85,-19,-4,-3,2025-02-24 12:31:58.968,0.0
-3,-4,-6,-17,-85,-19,-4,-3,2025-02-24 12:31:58.979,0.0
0,-1,1,1,45,-2,3,0,2025-02-24 12:31:58.990,0.0
0,-1,-3,-2,0,2,-1,-1,2025-02-24 12:31:59.001,0.0
0,-1,-2,2,-6,4,2,2,2025-02-24 12:31:59.012,0.0
0,-1,-2,2,-6,4,2,2,2025-02-24 12:31:59.024,0.0
0,-1,-2,2,-6,4,2,2,2025-02-24 12:31:59.035,0.0
-7,-4,-1,2,3,4,-8,-4,2025-02-24 12:31:59.046,0.0
2,1,-2,1,7,-1,-4,0,2025-02-24 12:31:59.057,0.0
2,1,-2,1,7,-1,-4,0,2025-02-24 12:31:59.068,0.0
3,3,2,-11,-24,-4,11,1,2025-02-24 12:31:59.082,0.0
3,3,2,-11,-24,-4,11,1,2025-02-24 12:31:59.091,0.0
3,3,2,-11,-24,-4,11,1,2025-02-24 12:31:59.102,0.0
-4,0,-6,0,-30,-8,-9,-4,2025-02-24 12:31:59.113,0.0
1,4,-1,4,10,-1,-3,-1,2025-02-24 12:31:59.124,0.0
2,0,-1,19,-23,-1,-1,-3,2025-02-24 12:31:59.135,0.0
2,0,-1,19,-23,-1,-1,-3,2025-02-24 12:31:59.147,0.0
-1,-1,-4,-11,-44,0,-3,-3,2025-02-24 12:31:59.158,0.0
-1,-1,-4,-11,-44,0,-3,-3,2025-02-24 12:31:59.169,0.0
-2,2,-2,-19,-14,-5,-3,-1,2025-02-24 12:31:59.180,0.0
-2,2,-2,-19,-14,-5,-3,-1,2025-02-24 12:31:59.192,0.0
0,0,-1,3,-18,-2,-2,-3,2025-02-24 12:31:59.203,0.0
0,0,-1,3,-18,-2,-2,-3,2025-02-24 12:31:59.214,0.0
0,0,0,4,-4,4,0,-1,2025-02-24 12:31:59.224,0.0
-2,-4,-2,2,-3,-1,-2,-3,2025-02-24 12:31:59.236,0.0
-2,-3,-2,0,-4,0,0,0,2025-02-24 12:31:59.247,0.0
0,2,2,4,-18,3,-5,0,2025-02-24 12:31:59.259,0.0
0,2,2,4,-18,3,-5,0,2025-02-24 12:31:59.270,0.0
0,-1,-2,-1,-4,1,5,3,2025-02-24 12:31:59.284,0.0
0,-1,-2,-1,-4,1,5,3,2025-02-24 12:31:59.292,0.0
-2,0,1,2,-15,8,0,-3,2025-02-24 12:31:59.303,0.0
-3,-3,-2,-7,-19,-9,-2,-3,2025-02-24 12:31:59.314,0.0
-3,-3,-2,-7,-19,-9,-2,-3,2025-02-24 12:31:59.326,0.0
-2,0,-2,-1,-8,-4,-5,0,2025-02-24 12:31:59.337,0.0
-2,0,-2,-1,-8,-4,-5,0,2025-02-24 12:31:59.348,0.0
-1,-2,-3,0,-6,-1,-1,-2,2025-02-24 12:31:59.359,0.0
-1,-2,-3,0,-6,-1,-1,-2,2025-02-24 12:31:59.370,0.0
-3,-2,-3,-3,-12,6,2,-1,2025-02-24 12:31:59.381,0.0
-3,-2,-3,-3,-12,6,2,-1,2025-02-24 12:31:59.392,0.0
2,1,-2,1,-7,-3,0,2,2025-02-24 12:31:59.403,0.0
2,1,-2,1,-7,-3,0,2,2025-02-24 12:31:59.415,0.0
-2,-2,0,3,1,0,-1,-2,2025-02-24 12:31:59.426,0.0
-2,-1,-2,0,-1,4,2,-1,2025-02-24 12:31:59.437,0.0
-2,-1,-2,0,-1,4,2,-1,2025-02-24 12:31:59.448,0.0
-2,-2,-1,4,2,-3,0,-1,2025-02-24 12:31:59.459,0.0
0,0,0,0,-2,0,1,0,2025-02-24 12:31:59.470,0.0
-2,-2,-1,-4,-11,-9,-6,-1,2025-02-24 12:31:59.484,0.0
-1,1,0,0,-7,1,12,-4,2025-02-24 12:31:59.493,0.0
-1,1,0,0,-7,1,12,-4,2025-02-24 12:31:59.504,0.0
-1,-1,-1,-1,-7,-9,-3,-1,2025-02-24 12:31:59.515,0.0
0,0,-2,0,1,1,-3,0,2025-02-24 12:31:59.526,0.0
-2,-3,0,-4,-4,0,0,-3,2025-02-24 12:31:59.538,0.0
-1,0,-3,-13,-18,-3,-1,-2,2025-02-24 12:31:59.549,0.0
-2,0,-1,-3,-13,-2,-8,-1,2025-02-24 12:31:59.560,0.0
-2,0,-1,-3,-13,-2,-8,-1,2025-02-24 12:31:59.572,0.0
-2,-1,-1,1,-3,0,14,0,2025-02-24 12:31:59.583,0.0
-2,-1,-1,1,-3,0,14,0,2025-02-24 12:31:59.594,0.0
1,-3,0,6,6,3,-8,-1,2025-02-24 12:31:59.604,0.0
1,-1,-3,4,-2,-2,-5,-1,2025-02-24 12:31:59.615,0.0
1,-1,-3,4,-2,-2,-5,-1,2025-02-24 12:31:59.626,0.0
0,2,-2,1,2,2,3,0,2025-02-24 12:31:59.638,0.0
0,2,-2,1,2,2,3,0,2025-02-24 12:31:59.649,0.0
-1,-4,1,2,-8,-3,6,0,2025-02-24 12:31:59.661,0.0
-1,-4,1,2,-8,-3,6,0,2025-02-24 12:31:59.672,0.0
0,-2,-3,-4,-1,-11,-18,-2,2025-02-24 12:31:59.686,0.0
0,-2,-3,-4,-1,-11,-18,-2,2025-02-24 12:31:59.694,0.0
-4,0,-1,-2,0,1,-3,-1,2025-02-24 12:31:59.706,0.0
-4,0,-1,-2,0,1,-3,-1,2025-02-24 12:31:59.717,0.0
-4,0,-1,-2,0,1,-3,-1,2025-02-24 12:31:59.728,0.0
-4,0,-1,-2,0,1,-3,-1,2025-02-24 12:31:59.739,0.0
-4,0,-1,-2,0,1,-3,-1,2025-02-24 12:31:59.750,0.0
-4,0,-1,-2,0,1,-3,-1,2025-02-24 12:31:59.761,0.0
0,4,-1,0,-1,-5,-1,1,2025-02-24 12:31:59.773,0.0
-1,0,1,2,-2,1,5,-1,2025-02-24 12:31:59.784,0.0
2,-2,-3,-1,-3,2,10,-1,2025-02-24 12:31:59.795,0.0
1,-2,-1,-3,-3,0,-2,-1,2025-02-24 12:31:59.806,0.0
-1,-2,1,-3,-6,-7,-5,-2,2025-02-24 12:31:59.817,0.0
-1,-2,-2,-2,-2,-1,0,-2,2025-02-24 12:31:59.828,0.0
-1,-4,-5,-3,-7,10,1,-2,2025-02-24 12:31:59.839,0.0
-1,-4,-5,-3,-7,10,1,-2,2025-02-24 12:31:59.850,0.0
-1,-4,-5,-3,-7,10,1,-2,2025-02-24 12:31:59.862,0.0
-1,-2,-2,-2,-3,4,-8,-1,2025-02-24 12:31:59.873,0.0
2,2,1,17,-1,-13,-13,0,2025-02-24 12:31:59.887,0.0
2,2,1,17,-1,-13,-13,0,2025-02-24 12:31:59.895,0.0
2,2,1,17,-1,-13,-13,0,2025-02-24 12:31:59.906,0.0
2,2,1,17,-1,-13,-13,0,2025-02-24 12:31:59.918,0.0
2,2,1,17,-1,-13,-13,0,2025-02-24 12:31:59.929,0.0
-1,0,-1,-3,-5,-2,0,-2,2025-02-24 12:31:59.940,0.0
-1,0,-1,2,-1,-8,-1,0,2025-02-24 12:31:59.951,0.0
-1,0,-1,2,-1,-8,-1,0,2025-02-24 12:31:59.962,0.0
-1,0,-1,2,-1,-8,-1,0,2025-02-24 12:31:59.974,0.0
0,-2,-3,-3,-3,10,2,-1,2025-02-24 12:31:59.984,0.0
0,-2,-3,-3,-3,10,2,-1,2025-02-24 12:31:59.995,0.0
0,-2,-1,-2,-9,-11,-5,-1,2025-02-24 12:32:00.007,0.0
0,0,-1,-2,-5,-3,-2,-1,2025-02-24 12:32:00.018,0.0
0,0,-1,-2,-5,-3,-2,-1,2025-02-24 12:32:00.029,0.0
0,-4,-4,-4,-4,2,-2,-2,2025-02-24 12:32:00.041,0.0
-2,1,0,2,-12,-4,-3,-1,2025-02-24 12:32:00.051,0.0
-2,1,0,2,-12,-4,-3,-1,2025-02-24 12:32:00.063,0.0
-2,1,0,2,-12,-4,-3,-1,2025-02-24 12:32:00.074,0.0
-2,1,0,2,-12,-4,-3,-1,2025-02-24 12:32:00.088,0.0
-1,-3,-3,-8,2,-7,1,0,2025-02-24 12:32:00.096,0.0
0,-2,0,2,-4,-6,-10,-1,2025-02-24 12:32:00.108,0.0
0,-1,2,0,-5,-1,2,1,2025-02-24 12:32:00.119,0.0
0,-1,2,0,-5,-1,2,1,2025-02-24 12:32:00.130,0.0
-2,-2,-1,-2,8,3,0,-1,2025-02-24 12:32:00.141,0.0
-2,-2,0,-2,-2,-3,5,-1,2025-02-24 12:32:00.152,0.0
-2,-2,0,-2,-2,-3,5,-1,2025-02-24 12:32:00.163,0.0
0,-1,-1,1,-2,0,1,0,2025-02-24 12:32:00.175,0.0
0,-1,-1,-2,-2,-5,-5,-2,2025-02-24 12:32:00.185,0.0
0,-1,-1,-2,-2,-5,-5,-2,2025-02-24 12:32:00.197,0.0
-2,1,2,2,-2,0,2,0,2025-02-24 12:32:00.208,0.0
-1,0,-1,19,-2,-1,-8,-1,2025-02-24 12:32:00.219,0.0
-1,0,-1,19,-2,-1,-8,-1,2025-02-24 12:32:00.230,0.0
1,0,-2,0,-2,-6,-3,-2,2025-02-24 12:32:00.241,0.0
1,0,-2,0,-2,-6,-3,-2,2025-02-24 12:32:00.253,0.0
-1,1,1,-5,-2,-6,-6,0,2025-02-24 12:32:00.264,0.0
-1,1,-3,-2,0,2,-4,-1,2025-02-24 12:32:00.275,0.0
0,0,-5,-2,-4,-4,-5,1,2025-02-24 12:32:00.289,0.0
-8,-2,-3,-4,-10,-3,3,-1,2025-02-24 12:32:00.297,0.0
-3,-2,-2,-1,-7,4,-2,-4,2025-02-24 12:32:00.309,0.0
3,2,2,-1,-3,0,-3,0,2025-02-24 12:32:00.320,0.0
-1,0,0,-9,-2,4,-1,0,2025-02-24 12:32:00.331,0.0
2,1,0,-1,0,3,3,0,2025-02-24 12:32:00.342,0.0
2,1,0,-1,0,3,3,0,2025-02-24 12:32:00.354,0.0
-4,-2,-3,-1,-5,-3,-2,-2,2025-02-24 12:32:00.365,0.0
-4,-2,-3,-1,-5,-3,-2,-2,2025-02-24 12:32:00.376,0.0
-1,-1,-1,2,-8,4,-7,-2,2025-02-24 12:32:00.386,0.0
1,0,-2,-1,4,3,0,0,2025-02-24 12:32:00.398,0.0
-1,-2,-3,-1,-4,-3,-1,-1,2025-02-24 12:32:00.409,0.0
-1,2,-1,1,0,-3,1,-2,2025-02-24 12:32:00.420,0.0
-1,2,-1,1,0,-3,1,-2,2025-02-24 12:32:00.431,0.0
-2,-2,-2,-4,-13,-3,2,0,2025-02-24 12:32:00.443,0.0
0,-3,-1,3,0,5,-1,0,2025-02-24 12:32:00.454,0.0
-1,-1,-1,1,-5,-2,0,-2,2025-02-24 12:32:00.465,0.0
-1,-2,0,-1,-2,-1,1,-2,2025-02-24 12:32:00.476,0.0
0,-1,-1,2,2,-3,0,-1,2025-02-24 12:32:00.491,0.0
-2,-2,0,-1,-2,2,0,-2,2025-02-24 12:32:00.498,0.0
-2,-2,0,-1,-2,2,0,-2,2025-02-24 12:32:00.510,0.0
2,-2,1,-1,3,2,2,0,2025-02-24 12:32:00.521,0.0
-4,-1,0,1,1,-1,2,0,2025-02-24 12:32:00.532,0.0
2,2,0,1,1,-4,-3,1,2025-02-24 12:32:00.543,0.0
2,2,0,1,1,-4,-3,1,2025-02-24 12:32:00.554,0.0
0,-2,-4,-3,1,1,-5,-1,2025-02-24 12:32:00.566,0.0
0,-2,-4,-3,1,1,-5,-1,2025-02-24 12:32:00.576,0.0
0,-3,-3,-3,-3,1,3,-2,2025-02-24 12:32:00.588,0.0
-2,0,-1,3,3,3,0,-1,2025-02-24 12:32:00.599,0.0
0,-1,0,-4,-7,-7,-7,-1,2025-02-24 12:32:00.609,0.0
-2,-3,-3,-4,-7,6,-2,0,2025-02-24 12:32:00.621,0.0
-2,-3,-3,-4,-7,6,-2,0,2025-02-24 12:32:00.632,0.0
-1,0,-2,-14,2,5,1,1,2025-02-24 12:32:00.643,0.0
-1,0,-2,-14,2,5,1,1,2025-02-24 12:32:00.655,0.0
-1,-1,-1,-2,-9,-5,2,-1,2025-02-24 12:32:00.666,0.0
0,-2,0,3,-8,6,5,0,2025-02-24 12:32:00.677,0.0
-1,-1,0,4,1,2,0,0,2025-02-24 12:32:00.692,0.0
-1,-1,0,4,1,2,0,0,2025-02-24 12:32:00.699,0.0
-1,-1,0,4,1,2,0,0,2025-02-24 12:32:00.711,0.0
-1,-1,0,4,1,2,0,0,2025-02-24 12:32:00.722,0.0
-3,-4,-2,-4,-4,-6,-2,-1,2025-02-24 12:32:00.733,0.0
-7,-2,-2,-3,-4,-4,-3,-1,2025-02-24 12:32:00.744,0.0
-7,-2,-2,-3,-4,-4,-3,-1,2025-02-24 12:32:00.755,0.0
-7,-2,-2,-3,-4,-4,-3,-1,2025-02-24 12:32:00.766,0.0
-7,-2,-2,-3,-4,-4,-3,-1,2025-02-24 12:32:00.777,0.0
-2,0,2,0,-4,-1,8,-3,2025-02-24 12:32:00.789,0.0
0,-1,-1,-1,-7,-1,-7,-2,2025-02-24 12:32:00.800,0.0
0,0,-1,-3,-6,4,2,-1,2025-02-24 12:32:00.811,0.0
-1,-2,-2,-2,-3,1,-3,-1,2025-02-24 12:32:00.822,0.0
-1,-2,-2,-2,-3,1,-3,-1,2025-02-24 12:32:00.833,0.0
-2,-1,-2,-3,-4,-3,-2,-1,2025-02-24 12:32:00.845,0.0
-2,-1,-2,-3,-4,-3,-2,-1,2025-02-24 12:32:00.855,0.0
1,0,-1,-2,-5,-15,-12,-2,2025-02-24 12:32:00.867,0.0
1,0,-1,-2,-5,-15,-12,-2,2025-02-24 12:32:00.878,0.0
1,0,-1,-2,-5,-15,-12,-2,2025-02-24 12:32:00.892,0.0
1,0,-1,-2,-5,-15,-12,-2,2025-02-24 12:32:00.900,0.0
-2,0,-1,4,3,7,2,0,2025-02-24 12:32:00.912,0.0
1,-2,-1,-3,-3,-4,-6,-1,2025-02-24 12:32:00.923,0.0
1,-2,-1,-3,-3,-4,-6,-1,2025-02-24 12:32:00.934,0.0
-3,0,-1,-2,0,-3,-1,-1,2025-02-24 12:32:00.945,0.0
-3,0,-1,-2,0,-3,-1,-1,2025-02-24 12:32:00.957,0.0
-3,0,-1,-2,0,-3,-1,-1,2025-02-24 12:32:00.968,0.0
0,0,-2,-12,-2,-6,0,-1,2025-02-24 12:32:00.979,0.0
0,-2,-3,0,1,0,-4,-1,2025-02-24 12:32:00.990,0.0
1,-2,-2,1,-4,1,-6,-1,2025-02-24 12:32:01.001,0.0
-1,0,-1,2,-2,3,4,-1,2025-02-24 12:32:01.013,0.0
-2,-2,-3,-5,-7,1,-2,-3,2025-02-24 12:32:01.024,0.0
-2,-2,-3,-5,-7,1,-2,-3,2025-02-24 12:32:01.035,0.0
-2,-2,-1,2,-1,4,21,0,2025-02-24 12:32:01.047,0.0
-1,-1,-1,1,0,-7,-5,0,2025-02-24 12:32:01.061,0.0
0,2,-1,-11,-10,6,-5,0,2025-02-24 12:32:01.068,0.0
0,2,-1,-11,-10,6,-5,0,2025-02-24 12:32:01.080,0.0
-1,-1,1,4,4,2,-5,-1,2025-02-24 12:32:01.094,0.0
-3,-2,-2,0,5,-12,-3,0,2025-02-24 12:32:01.102,0.0
-3,-2,-2,0,5,-12,-3,0,2025-02-24 12:32:01.115,0.0
-3,-2,-2,0,5,-12,-3,0,2025-02-24 12:32:01.124,0.0
0,-1,0,-2,-10,-4,-7,-1,2025-02-24 12:32:01.135,0.0
-1,0,0,0,-2,-2,4,-3,2025-02-24 12:32:01.146,0.0
-1,0,0,0,-2,-2,4,-3,2025-02-24 12:32:01.158,0.0
0,-2,0,4,3,0,2,0,2025-02-24 12:32:01.168,0.0
0,-2,0,4,3,0,2,0,2025-02-24 12:32:01.180,0.0
0,-1,-3,0,-5,-4,-2,0,2025-02-24 12:32:01.191,0.0
-1,-2,0,1,-1,-6,-5,1,2025-02-24 12:32:01.202,0.0
-1,-2,-1,-2,-1,1,3,-2,2025-02-24 12:32:01.213,0.0
-1,0,-1,2,-1,-4,-1,0,2025-02-24 12:32:01.225,0.0
-1,0,-1,2,-1,-4,-1,0,2025-02-24 12:32:01.236,0.0
-1,-1,-1,5,2,2,-2,-2,2025-02-24 12:32:01.247,0.0
-1,-1,-3,0,-4,-7,6,0,2025-02-24 12:32:01.258,0.0
1,-1,-2,-1,-6,4,3,0,2025-02-24 12:32:01.269,0.0
-1,-1,0,-5,-5,-3,-6,-1,2025-02-24 12:32:01.280,0.0
0,-2,-1,-1,-4,9,0,-1,2025-02-24 12:32:01.296,0.0
-2,-1,0,2,-7,2,-5,0,2025-02-24 12:32:01.303,0.0
-2,-1,0,2,-7,2,-5,0,2025-02-24 12:32:01.314,0.0
-1,0,2,-8,6,-1,-4,-1,2025-02-24 12:32:01.325,0.0
-1,0,2,-8,6,-1,-4,-1,2025-02-24 12:32:01.336,0.0
-1,-1,-3,-1,-7,-7,0,-1,2025-02-24 12:32:01.348,0.0
-1,-1,-3,-1,-7,-7,0,-1,2025-02-24 12:32:01.358,0.0
-1,-1,-1,-3,-1,1,5,-2,2025-02-24 12:32:01.369,0.0
-1,-3,-2,1,-6,3,2,0,2025-02-24 12:32:01.381,0.0
-3,-2,-3,-3,-4,-2,-2,-1,2025-02-24 12:32:01.392,0.0
-3,-1,-1,3,-3,11,-1,-1,2025-02-24 12:32:01.403,0.0
-3,-1,-1,3,-3,11,-1,-1,2025-02-24 12:32:01.414,0.0
-1,0,0,-4,5,5,-4,-2,2025-02-24 12:32:01.425,0.0
0,0,-1,0,-1,-18,-7,-2,2025-02-24 12:32:01.436,0.0
-1,-2,-1,-1,-4,-5,-8,-2,2025-02-24 12:32:01.448,0.0
0,0,-3,-1,-1,1,4,1,2025-02-24 12:32:01.459,0.0
0,0,-3,-1,-1,1,4,1,2025-02-24 12:32:01.471,0.0
-1,1,-2,-3,-7,-8,-2,0,2025-02-24 12:32:01.482,0.0
-1,1,-2,-3,-7,-8,-2,0,2025-02-24 12:32:01.496,0.0
-1,1,-2,-3,-7,-8,-2,0,2025-02-24 12:32:01.504,0.0
0,-1,2,-1,-7,-1,6,0,2025-02-24 12:32:01.515,0.0
0,-1,2,-1,-7,-1,6,0,2025-02-24 12:32:01.526,0.0
0,-3,-1,0,-1,3,-2,-3,2025-02-24 12:32:01.537,0.0
0,-3,-1,0,-1,3,-2,-3,2025-02-24 12:32:01.548,0.0
0,-3,-1,0,-1,3,-2,-3,2025-02-24 12:32:01.559,0.0
0,-3,-1,0,-1,3,-2,-3,2025-02-24 12:32:01.570,0.0
-1,-3,1,-4,3,-1,1,0,2025-02-24 12:32:01.581,0.0
-1,-2,-4,-1,-5,-2,9,-2,2025-02-24 12:32:01.593,0.0
-1,-2,-4,-1,-5,-2,9,-2,2025-02-24 12:32:01.604,0.0
-1,-2,-4,-1,-5,-2,9,-2,2025-02-24 12:32:01.615,0.0
-3,-2,0,-2,-9,6,1,-2,2025-02-24 12:32:01.629,0.0
1,-3,-1,-2,-3,0,-2,-1,2025-02-24 12:32:01.638,0.0
-3,0,-1,1,-2,-1,-1,-2,2025-02-24 12:32:01.649,0.0
-3,0,-1,1,-2,-1,-1,-2,2025-02-24 12:32:01.660,0.0
-3,0,-1,1,-2,-1,-1,-2,2025-02-24 12:32:01.671,0.0
-3,0,-1,1,-2,-1,-1,-2,2025-02-24 12:32:01.682,0.0
-3,0,-1,1,-2,-1,-1,-2,2025-02-24 12:32:01.697,0.0
1,0,1,3,1,4,-8,0,2025-02-24 12:32:01.705,0.0
-2,-1,0,-5,-1,11,0,0,2025-02-24 12:32:01.716,0.0
-2,-1,0,-5,-1,11,0,0,2025-02-24 12:32:01.727,0.0
-2,-1,-3,-3,-10,-6,-4,-2,2025-02-24 12:32:01.738,0.0
-2,-1,-3,-3,-10,-6,-4,-2,2025-02-24 12:32:01.750,0.0
-2,0,-1,2,-9,-7,-4,-1,2025-02-24 12:32:01.761,0.0
-1,-1,1,1,19,6,7,-1,2025-02-24 12:32:01.772,0.0
-2,-1,-1,-1,-5,-3,-2,0,2025-02-24 12:32:01.785,0.0
-2,-1,-1,-1,-5,-3,-2,0,2025-02-24 12:32:01.794,0.0
-2,-1,-1,-1,-5,-3,-2,0,2025-02-24 12:32:01.806,0.0
0,-2,-2,-1,-4,-1,0,0,2025-02-24 12:32:01.816,0.0
-2,0,-3,-7,-13,-6,1,-1,2025-02-24 12:32:01.828,0.0
-2,0,-3,-7,-13,-6,1,-1,2025-02-24 12:32:01.839,0.0
-2,0,-3,-7,-13,-6,1,-1,2025-02-24 12:32:01.850,1.2
-2,0,-3,-7,-13,-6,1,-1,2025-02-24 12:32:01.861,1.2
-1,-1,-1,-1,-6,-2,1,-1,2025-02-24 12:32:01.872,1.2
-2,-2,-1,-2,-9,-5,-14,-1,2025-02-24 12:32:01.883,1.2
-1,-1,0,2,0,-3,-6,0,2025-02-24 12:32:01.898,1.2
-1,-1,0,2,0,-3,-6,0,2025-02-24 12:32:01.906,1.2
-1,-1,0,2,0,-3,-6,0,2025-02-24 12:32:01.918,1.2
-1,-1,0,2,0,-3,-6,0,2025-02-24 12:32:01.929,1.2
-2,-3,-3,-1,-3,-2,0,-2,2025-02-24 12:32:01.940,1.2
-1,-1,-3,0,-7,-4,1,-1,2025-02-24 12:32:01.950,1.2
-1,-1,-3,0,-7,-4,1,-1,2025-02-24 12:32:01.961,1.2
-1,-1,-1,0,-2,9,6,-2,2025-02-24 12:32:01.972,1.2
0,-2,-2,-3,-9,-13,6,-1,2025-02-24 12:32:01.984,1.2
-1,0,-1,0,6,7,9,0,2025-02-24 12:32:01.995,1.2
-1,-1,0,-2,-14,-4,2,-2,2025-02-24 12:32:02.006,1.2
-1,-1,-2,-5,-4,7,-4,1,2025-02-24 12:32:02.017,1.2
-1,-1,-2,-5,-4,7,-4,1,2025-02-24 12:32:02.028,1.2
-1,-1,-2,-5,-4,7,-4,1,2025-02-24 12:32:02.039,1.2
0,0,0,-2,4,2,1,-1,2025-02-24 12:32:02.051,1.2
-1,0,0,0,-5,-1,5,-2,2025-02-24 12:32:02.062,1.2
-3,-3,-1,-4,-1,4,1,-2,2025-02-24 12:32:02.073,1.2
-1,-1,-2,-2,-4,-7,-16,-1,2025-02-24 12:32:02.084,1.2
-2,-2,-1,2,-4,2,2,-2,2025-02-24 12:32:02.099,1.2
0,1,-1,0,12,-1,-2,0,2025-02-24 12:32:02.107,1.2
-2,-2,0,4,4,2,-2,0,2025-02-24 12:32:02.118,1.2
-1,-3,-1,-3,-8,-2,-7,-2,2025-02-24 12:32:02.129,1.2
-1,-3,-1,-3,-8,-2,-7,-2,2025-02-24 12:32:02.140,1.2
-2,-1,-2,-9,-8,2,10,-1,2025-02-24 12:32:02.151,1.2
-2,-1,-2,-9,-8,2,10,-1,2025-02-24 12:32:02.163,1.2
-2,-1,-1,2,-2,5,-5,-2,2025-02-24 12:32:02.174,1.2
-2,-1,-3,-3,-10,-7,-1,0,2025-02-24 12:32:02.185,1.2
1,0,0,4,9,10,-6,0,2025-02-24 12:32:02.196,1.2
0,-1,-1,0,-10,-11,-1,-2,2025-02-24 12:32:02.208,1.2
0,-1,-1,0,-10,-11,-1,-2,2025-02-24 12:32:02.219,1.2
0,0,-1,-3,-3,-3,0,-1,2025-02-24 12:32:02.230,1.2
-1,-1,0,3,0,-2,-1,-1,2025-02-24 12:32:02.241,1.2
-2,-2,-3,-2,-12,-1,4,-1,2025-02-24 12:32:02.252,1.2
-1,0,0,-1,-2,-6,-7,-1,2025-02-24 12:32:02.263,1.2
-1,-1,2,19,1,-9,-2,-1,2025-02-24 12:32:02.274,1.2
-3,-2,-1,-6,-12,-10,-6,0,2025-02-24 12:32:02.285,1.2
-3,-2,-1,-6,-12,-10,-6,0,2025-02-24 12:32:02.300,1.2
-2,0,0,1,4,10,-5,-1,2025-02-24 12:32:02.308,1.2
-2,0,0,1,4,10,-5,-1,2025-02-24 12:32:02.319,1.2
-2,-4,-2,-2,-4,4,5,-2,2025-02-24 12:32:02.331,1.2
-2,-4,-2,-2,-4,4,5,-2,2025-02-24 12:32:02.341,1.2
-2,-1,-4,-1,3,-1,-3,-1,2025-02-24 12:32:02.352,1.2
-2,-1,-4,-1,3,-1,-3,-1,2025-02-24 12:32:02.363,1.2
-1,-1,-2,-9,-19,-3,-2,0,2025-02-24 12:32:02.375,1.2
1,0,-2,1,-1,11,3,-1,2025-02-24 12:32:02.385,1.2
1,0,-2,1,-1,11,3,-1,2025-02-24 12:32:02.397,1.2
-1,-2,-3,-3,-7,-6,-3,-2,2025-02-24 12:32:02.408,1.2
-1,-3,-1,0,1,-3,-11,1,2025-02-24 12:32:02.419,1.2
-2,-1,-1,-2,-4,-3,-1,0,2025-02-24 12:32:02.430,1.2
-2,-1,-1,-2,-4,-3,-1,0,2025-02-24 12:32:02.442,1.2
-1,-1,-2,1,-5,-2,-3,-1,2025-02-24 12:32:02.453,1.2
-1,-1,-2,1,-5,-2,-3,-1,2025-02-24 12:32:02.465,1.2
-1,-1,-2,1,-5,-2,-3,-1,2025-02-24 12:32:02.476,1.2
-1,-1,1,7,3,10,6,-2,2025-02-24 12:32:02.487,1.2
-1,-1,1,7,3,10,6,-2,2025-02-24 12:32:02.501,1.2
-2,0,-3,-3,0,4,-2,-2,2025-02-24 12:32:02.510,1.2
-2,0,-3,-3,0,4,-2,-2,2025-02-24 12:32:02.521,1.2
-1,-1,0,0,1,2,9,1,2025-02-24 12:32:02.531,1.2
-1,-3,-2,-6,-4,-3,-7,-2,2025-02-24 12:32:02.542,1.2
-2,-2,-1,0,-2,-6,0,0,2025-02-24 12:32:02.553,1.2
0,-3,-1,15,-3,-1,-3,-1,2025-02-24 12:32:02.565,1.2
-2,-2,0,-1,-1,-9,-2,-2,2025-02-24 12:32:02.576,1.2
0,-1,-1,1,-10,0,0,1,2025-02-24 12:32:02.587,1.2
0,-1,-1,1,-10,0,0,1,2025-02-24 12:32:02.598,1.2
-1,-1,0,-4,-3,-6,0,-2,2025-02-24 12:32:02.609,1.2
-2,0,-2,-4,-6,7,-3,-2,2025-02-24 12:32:02.620,1.2
-2,0,-2,-4,-6,7,-3,-2,2025-02-24 12:32:02.632,1.2
-2,0,-2,-4,-6,7,-3,-2,2025-02-24 12:32:02.643,1.2
-2,0,-2,-4,-6,7,-3,-2,2025-02-24 12:32:02.654,1.2
-2,0,-2,-4,-6,7,-3,-2,2025-02-24 12:32:02.665,1.2
0,0,-3,-14,-4,-2,-1,-1,2025-02-24 12:32:02.676,1.2
-2,1,-1,3,1,-5,-1,-1,2025-02-24 12:32:02.688,1.2
-2,1,-1,3,1,-5,-1,-1,2025-02-24 12:32:02.702,1.2
-2,1,-1,3,1,-5,-1,-1,2025-02-24 12:32:02.710,1.2
-2,1,-1,3,1,-5,-1,-1,2025-02-24 12:32:02.721,1.2
-1,-1,0,1,-10,-6,1,-1,2025-02-24 12:32:02.732,1.2
-1,-1,0,1,-10,-6,1,-1,2025-02-24 12:32:02.743,1.2
-1,-1,0,1,-10,-6,1,-1,2025-02-24 12:32:02.755,1.2
-1,-1,0,1,-10,-6,1,-1,2025-02-24 12:32:02.766,1.2
-1,-1,0,1,-10,-6,1,-1,2025-02-24 12:32:02.777,1.2
-1,0,0,3,0,-2,-2,-1,2025-02-24 12:32:02.788,1.2
-1,0,0,1,3,0,11,1,2025-02-24 12:32:02.799,1.2
-1,0,0,1,3,0,11,1,2025-02-24 12:32:02.810,1.2
-1,0,0,1,3,0,11,1,2025-02-24 12:32:02.821,1.2
-1,0,0,1,3,0,11,1,2025-02-24 12:32:02.833,1.2
-1,0,0,1,3,0,11,1,2025-02-24 12:32:02.844,1.2
-1,0,-1,-2,2,-3,5,-3,2025-02-24 12:32:02.855,1.2
0,-1,-1,1,3,4,-1,0,2025-02-24 12:32:02.867,1.2
0,-1,-1,1,3,4,-1,0,2025-02-24 12:32:02.878,1.2
-1,-3,-1,0,-3,-9,-1,-1,2025-02-24 12:32:02.889,1.2
-1,-3,-1,0,-3,-9,-1,-1,2025-02-24 12:32:02.903,1.2
-2,-1,0,-2,-10,-4,5,-3,2025-02-24 12:32:02.911,1.2
0,-1,2,1,1,6,2,-2,2025-02-24 12:32:02.922,1.2
0,-1,2,1,1,6,2,-2,2025-02-24 12:32:02.933,1.2
-1,-1,-4,1,-2,1,-6,-2,2025-02-24 12:32:02.944,1.2
-1,-1,-4,1,-2,1,-6,-2,2025-02-24 12:32:02.956,1.2
-1,1,-3,-2,-9,-4,-3,-1,2025-02-24 12:32:02.967,1.2
-1,-2,0,-2,1,-1,-3,-1,2025-02-24 12:32:02.978,1.2
-2,-1,0,-7,0,-2,9,0,2025-02-24 12:32:02.989,1.2
-2,-1,0,-7,0,-2,9,0,2025-02-24 12:32:03.001,1.2
-3,-1,-2,-1,7,-3,5,-1,2025-02-24 12:32:03.012,1.2
-3,-1,-2,-1,7,-3,5,-1,2025-02-24 12:32:03.023,1.2
-1,1,-3,-14,-15,-11,-3,0,2025-02-24 12:32:03.034,1.2
-1,0,-1,-3,-4,-1,-4,1,2025-02-24 12:32:03.045,1.2
-1,0,-1,-3,-4,-1,-4,1,2025-02-24 12:32:03.056,1.2
-1,0,-1,-3,-4,-1,-4,1,2025-02-24 12:32:03.067,1.2
-1,-2,-4,-2,-8,-6,-4,-2,2025-02-24 12:32:03.078,1.2
0,-2,2,4,-2,9,-5,-2,2025-02-24 12:32:03.090,1.2
-1,0,-2,-1,-7,7,4,0,2025-02-24 12:32:03.104,1.2
0,-2,-3,-6,2,-3,-2,-2,2025-02-24 12:32:03.112,1.2
-1,0,-1,2,-1,-6,-4,0,2025-02-24 12:32:03.124,1.2
-1,0,-1,2,-1,-6,-4,0,2025-02-24 12:32:03.134,1.2
-1,0,-2,1,0,1,-2,-1,2025-02-24 12:32:03.146,1.2
0,-2,1,0,7,-1,0,-1,2025-02-24 12:32:03.157,1.2
-3,-1,-1,-1,-11,-5,-2,0,2025-02-24 12:32:03.167,1.2
-2,-1,-1,1,-8,-2,-7,0,2025-02-24 12:32:03.179,1.2
-1,-1,-1,-2,-5,-2,8,-2,2025-02-24 12:32:03.190,1.2
-1,-1,-1,-2,-5,-2,8,-2,2025-02-24 12:32:03.201,1.2
-1,-3,0,-10,-6,3,-6,-1,2025-02-24 12:32:03.212,1.2
-1,-3,0,-10,-6,3,-6,-1,2025-02-24 12:32:03.224,1.2
-1,0,-1,1,-1,-2,-2,0,2025-02-24 12:32:03.235,1.2
0,-2,-2,-4,-15,-7,0,-2,2025-02-24 12:32:03.246,1.2
0,-2,-2,-4,-15,-7,0,-2,2025-02-24 12:32:03.257,1.2
0,-2,-2,-4,-15,-7,0,-2,2025-02-24 12:32:03.268,1.2
0,-1,-1,2,6,6,3,1,2025-02-24 12:32:03.280,1.2
0,-2,-5,-5,-18,-11,-11,-2,2025-02-24 12:32:03.291,1.2
0,-2,-5,-5,-18,-11,-11,-2,2025-02-24 12:32:03.305,1.2
-2,-1,-3,-2,-6,5,3,-1,2025-02-24 12:32:03.313,1.2
-2,-1,-3,-2,-6,5,3,-1,2025-02-24 12:32:03.325,1.2
0,0,-1,6,0,-3,1,0,2025-02-24 12:32:03.336,1.2
0,0,-1,6,0,-3,1,0,2025-02-24 12:32:03.347,1.2
0,-3,-2,-3,2,-2,-5,-3,2025-02-24 12:32:03.358,1.2
-1,-1,0,-1,-6,-5,-6,0,2025-02-24 12:32:03.369,1.2
-1,-1,0,-1,-6,-5,-6,0,2025-02-24 12:32:03.381,1.2
-1,-3,-1,6,2,8,2,-1,2025-02-24 12:32:03.392,1.2
-1,-3,-1,6,2,8,2,-1,2025-02-24 12:32:03.403,1.2
-1,-3,-1,6,2,8,2,-1,2025-02-24 12:32:03.414,1.2
-2,1,-1,-2,-8,-9,0,-1,2025-02-24 12:32:03.425,1.2
-3,-1,-1,2,1,-6,-11,-2,2025-02-24 12:32:03.436,1.2
-3,-1,-1,2,1,-6,-11,-2,2025-02-24 12:32:03.448,1.2
-3,-1,-1,2,1,-6,-11,-2,2025-02-24 12:32:03.459,1.2
-1,0,-1,2,-2,2,3,0,2025-02-24 12:32:03.470,1.2
0,-2,-2,-3,7,0,-2,1,2025-02-24 12:32:03.480,1.2
0,-2,-2,-3,7,0,-2,1,2025-02-24 12:32:03.492,1.2
-1,-1,0,3,1,0,1,-3,2025-02-24 12:32:03.507,1.2
-1,-3,0,-2,-6,-1,1,-1,2025-02-24 12:32:03.514,1.2
-1,-3,0,-2,-6,-1,1,-1,2025-02-24 12:32:03.526,1.2
0,-2,0,4,6,11,9,0,2025-02-24 12:32:03.536,1.2
0,0,-1,-3,-6,-9,0,-2,2025-02-24 12:32:03.547,1.2
0,0,-1,-3,-6,-9,0,-2,2025-02-24 12:32:03.559,1.2
0,0,-1,-3,-6,-9,0,-2,2025-02-24 12:32:03.570,1.2
0,-1,0,-5,-2,0,-5,-1,2025-02-24 12:32:03.581,1.2
0,-1,0,-5,-2,0,-5,-1,2025-02-24 12:32:03.592,1.2
-1,0,1,0,-1,4,4,-1,2025-02-24 12:32:03.603,1.2
-2,-2,-1,2,-7,-6,-7,-1,2025-02-24 12:32:03.615,1.2
-2,-2,-1,2,-7,-6,-7,-1,2025-02-24 12:32:03.626,1.2
0,0,-1,-5,-1,-1,0,-1,2025-02-24 12:32:03.637,1.2
0,0,-1,-5,-1,-1,0,-1,2025-02-24 12:32:03.648,1.2
0,0,-1,-5,-1,-1,0,-1,2025-02-24 12:32:03.659,1.2
0,0,-1,-5,-1,-1,0,-1,2025-02-24 12:32:03.670,1.2
-1,-2,-3,-3,-8,-5,-1,-2,2025-02-24 12:32:03.682,1.2
-1,-2,-3,-3,-8,-5,-1,-2,2025-02-24 12:32:03.693,1.2
-1,-1,-1,1,0,-1,4,0,2025-02-24 12:32:03.708,1.2
0,0,0,-1,1,3,3,1,2025-02-24 12:32:03.715,1.2
0,0,0,-1,1,3,3,1,2025-02-24 12:32:03.727,1.2
0,0,0,-1,1,3,3,1,2025-02-24 12:32:03.738,1.2
0,0,0,-1,1,3,3,1,2025-02-24 12:32:03.749,1.2
0,-3,-1,-4,-9,-11,-11,-2,2025-02-24 12:32:03.761,1.2
-2,-1,-2,-8,1,0,-1,0,2025-02-24 12:32:03.772,1.2
-2,-1,-2,-8,1,0,-1,0,2025-02-24 12:32:03.782,1.2
-2,-1,-2,-8,1,0,-1,0,2025-02-24 12:32:03.794,1.2
-2,-1,-2,-8,1,0,-1,0,2025-02-24 12:32:03.805,1.2
0,1,0,0,14,7,6,1,2025-02-24 12:32:03.816,1.2
-1,0,-1,-5,1,-2,-11,-2,2025-02-24 12:32:03.827,1.2
-2,-1,-3,-2,-2,6,-1,1,2025-02-24 12:32:03.838,1.2
-1,-2,-1,-4,-8,-3,-7,0,2025-02-24 12:32:03.850,1.2
-1,-2,-1,-4,-8,-3,-7,0,2025-02-24 12:32:03.860,1.2
-1,-2,-1,-4,-8,-3,-7,0,2025-02-24 12:32:03.871,1.2
-1,-2,-1,10,1,-8,-4,-1,2025-02-24 12:32:03.883,1.2
-1,-2,-1,10,1,-8,-4,-1,2025-02-24 12:32:03.894,1.2
-1,-1,-2,0,-19,-8,1,-3,2025-02-24 12:32:03.909,1.2
-1,0,0,0,0,0,1,-1,2025-02-24 12:32:03.916,1.2
-1,0,0,0,0,0,1,-1,2025-02-24 12:32:03.928,1.2
-1,0,0,0,0,0,1,-1,2025-02-24 12:32:03.939,1.2
-1,0,0,0,0,0,1,-1,2025-02-24 12:32:03.950,1.2
-1,0,0,0,0,0,1,-1,2025-02-24 12:32:03.961,1.2
-1,0,0,0,0,0,1,-1,2025-02-24 12:32:03.972,1.2
-1,0,0,0,0,0,1,-1,2025-02-24 12:32:03.983,1.2
-1,-1,-2,0,2,-5,-3,-1,2025-02-24 12:32:03.994,1.2
-1,-1,-2,0,2,-5,-3,-1,2025-02-24 12:32:04.005,1.2
-1,-1,-2,0,2,-5,-3,-1,2025-02-24 12:32:04.017,1.2
-1,-1,-2,0,2,-5,-3,-1,2025-02-24 12:32:04.028,1.2
0,-1,-4,-15,-17,-12,-13,-2,2025-02-24 12:32:04.039,1.2
-2,-1,-1,-1,-12,-5,-2,0,2025-02-24 12:32:04.051,1.2
-1,-3,-2,-9,-6,-3,-12,-3,2025-02-24 12:32:04.061,1.2
-1,0,0,-3,1,-3,8,-1,2025-02-24 12:32:04.073,1.2
-2,-1,-1,-7,-5,-5,-4,-1,2025-02-24 12:32:04.083,1.2
0,-1,0,-9,4,11,4,0,2025-02-24 12:32:04.095,1.2
-1,1,-2,-6,3,-3,-6,-1,2025-02-24 12:32:04.110,1.2
0,-2,-2,1,-5,12,5,0,2025-02-24 12:32:04.117,1.2
0,-2,-2,1,-5,12,5,0,2025-02-24 12:32:04.128,1.2
1,-1,-1,-1,6,3,3,0,2025-02-24 12:32:04.139,1.2
-4,-4,-1,-1,-3,-12,-6,-1,2025-02-24 12:32:04.151,1.2
0,1,1,5,-3,-3,-5,0,2025-02-24 12:32:04.162,1.2
-2,-3,-3,-1,1,-6,-3,-2,2025-02-24 12:32:04.174,1.2
-2,-3,-3,-1,1,-6,-3,-2,2025-02-24 12:32:04.185,1.2
-1,-1,1,-1,-8,-7,-9,-2,2025-02-24 12:32:04.196,1.2
-1,-1,-3,-3,-5,3,-3,0,2025-02-24 12:32:04.207,1.2
-1,-2,-1,-4,-2,0,8,-2,2025-02-24 12:32:04.218,1.2
-1,-1,-3,-8,-20,-5,-4,-1,2025-02-24 12:32:04.229,1.2
-1,-1,-3,-8,-20,-5,-4,-1,2025-02-24 12:32:04.241,1.2
-1,-1,0,1,2,16,5,0,2025-02-24 12:32:04.252,1.2
-3,-3,-2,0,-9,-2,-3,-2,2025-02-24 12:32:04.263,1.2
0,-2,0,0,-3,-3,-2,-1,2025-02-24 12:32:04.274,1.2
-1,1,0,-6,6,2,2,1,2025-02-24 12:32:04.285,1.2
1,1,0,-1,-8,-2,-2,-1,2025-02-24 12:32:04.296,1.2
1,1,0,-1,-8,-2,-2,-1,2025-02-24 12:32:04.311,1.2
0,0,-2,-1,3,0,0,0,2025-02-24 12:32:04.318,1.2
0,0,-2,-1,3,0,0,0,2025-02-24 12:32:04.330,1.2
-2,-2,-3,3,13,4,2,-2,2025-02-24 12:32:04.341,1.2
-1,-3,-3,-2,-4,6,-1,-2,2025-02-24 12:32:04.352,1.2
-1,-3,-3,-2,-4,6,-1,-2,2025-02-24 12:32:04.363,1.2
-2,0,-1,-9,-11,-4,-6,-2,2025-02-24 12:32:04.374,1.2
-2,1,0,1,-4,-14,3,-4,2025-02-24 12:32:04.385,1.2
-2,0,2,-3,3,-3,-5,1,2025-02-24 12:32:04.397,1.2
0,-1,-6,-7,-8,-2,-1,-1,2025-02-24 12:32:04.408,1.2
-1,-2,-1,0,-4,2,-1,1,2025-02-24 12:32:04.419,1.2
0,-3,-2,-1,-4,0,0,0,2025-02-24 12:32:04.430,1.2
0,-3,-2,-1,-4,0,0,0,2025-02-24 12:32:04.442,1.2
-2,-3,-4,-1,-3,0,0,-1,2025-02-24 12:32:04.452,1.2
-2,-3,-4,-1,-3,0,0,-1,2025-02-24 12:32:04.463,1.2
-1,-1,-1,0,-3,0,0,0,2025-02-24 12:32:04.474,1.2
-1,-1,-1,0,-3,0,0,0,2025-02-24 12:32:04.485,1.2
-1,-1,-1,0,-3,0,0,0,2025-02-24 12:32:04.497,1.2
-4,-3,-3,-3,-3,-1,1,2,2025-02-24 12:32:04.511,1.2
-2,-3,-3,-1,-4,0,-2,-4,2025-02-24 12:32:04.519,1.2
0,-1,0,-2,-2,-2,-2,2,2025-02-24 12:32:04.530,1.2
0,-1,0,-2,-2,-2,-2,2,2025-02-24 12:32:04.542,1.2
-4,-2,-2,-1,-4,-3,-2,-21,2025-02-24 12:32:04.553,1.2
-4,-2,-2,-1,-4,-3,-2,-21,2025-02-24 12:32:04.564,1.2
-2,-1,0,0,-2,0,1,3,2025-02-24 12:32:04.576,1.2
-2,-1,0,0,-2,0,1,3,2025-02-24 12:32:04.587,1.2
-2,-1,0,0,-2,0,1,3,2025-02-24 12:32:04.598,1.2
-2,-1,0,0,-2,0,1,3,2025-02-24 12:32:04.609,1.2
-2,-1,0,0,-2,0,1,3,2025-02-24 12:32:04.620,1.2
-2,-1,0,0,-2,0,1,3,2025-02-24 12:32:04.632,1.2
-1,-1,1,-1,-11,-2,-4,4,2025-02-24 12:32:04.643,1.2
-1,-1,1,-1,-11,-2,-4,4,2025-02-24 12:32:04.653,1.2
0,-1,-1,0,-21,-2,-2,1,2025-02-24 12:32:04.664,1.2
-2,-2,4,5,-10,4,4,-1,2025-02-24 12:32:04.676,1.2
-2,-2,4,5,-10,4,4,-1,2025-02-24 12:32:04.687,1.2
-2,-1,-2,-5,-27,-8,-6,0,2025-02-24 12:32:04.698,1.2
-2,-1,-2,-5,-27,-8,-6,0,2025-02-24 12:32:04.713,1.2
-2,-1,-2,-5,-27,-8,-6,0,2025-02-24 12:32:04.721,1.2
-2,-1,-2,-5,-27,-8,-6,0,2025-02-24 12:32:04.732,1.2
0,-2,-3,1,0,4,2,0,2025-02-24 12:32:04.743,1.2
0,-2,-3,1,0,4,2,0,2025-02-24 12:32:04.754,1.2
0,-2,-3,1,0,4,2,0,2025-02-24 12:32:04.766,1.2
-2,-1,-1,-1,-1,-1,-1,-1,2025-02-24 12:32:04.776,1.2
-2,-1,-1,-1,-1,-1,-1,-1,2025-02-24 12:32:04.787,1.2
-1,-3,0,0,-3,-1,-1,1,2025-02-24 12:32:04.799,1.2
-2,-2,0,-1,-4,-3,-1,-2,2025-02-24 12:32:04.810,1.2
-1,0,-1,-1,-5,-3,-2,-1,2025-02-24 12:32:04.821,1.2
0,-1,0,0,-4,0,-1,-2,2025-02-24 12:32:04.832,1.2
0,-5,-1,-1,-4,-1,-1,-1,2025-02-24 12:32:04.843,1.2
1,2,-1,-2,-3,0,-1,0,2025-02-24 12:32:04.855,1.2
1,2,-1,-2,-3,0,-1,0,2025-02-24 12:32:04.866,1.2
1,2,-1,-2,-3,0,-1,0,2025-02-24 12:32:04.877,1.2
-3,-4,-1,-1,-4,-2,-1,-2,2025-02-24 12:32:04.888,1.2
-2,-1,-3,1,-3,-2,-1,-1,2025-02-24 12:32:04.899,1.2
-1,-1,-2,0,-3,-1,0,-1,2025-02-24 12:32:04.914,1.2
-1,-1,-2,0,-3,-1,0,-1,2025-02-24 12:32:04.922,1.2
-1,1,-1,-1,-3,0,0,-2,2025-02-24 12:32:04.932,1.2
-2,2,-3,-1,-3,-1,-1,0,2025-02-24 12:32:04.944,1.2
-1,-2,-1,-1,-3,-2,-1,-1,2025-02-24 12:32:04.955,1.2
-1,-2,-1,-1,-3,-2,-1,-1,2025-02-24 12:32:04.966,1.2
-1,-2,-2,-1,-3,-1,-1,0,2025-02-24 12:32:04.978,1.2
-1,-2,-2,-1,-3,-1,-1,0,2025-02-24 12:32:04.989,1.2
-2,-3,-3,-1,-2,-1,-1,-2,2025-02-24 12:32:05.000,1.2
-2,-3,-3,-1,-2,-1,-1,-2,2025-02-24 12:32:05.011,1.2
0,1,0,-2,-2,0,0,0,2025-02-24 12:32:05.022,1.2
0,1,0,-2,-2,0,0,0,2025-02-24 12:32:05.034,1.2
0,-3,-2,0,-2,-1,0,-2,2025-02-24 12:32:05.045,1.2
0,-3,-2,0,-2,-1,0,-2,2025-02-24 12:32:05.056,1.2
-2,0,2,-2,-4,-1,-1,-1,2025-02-24 12:32:05.067,1.2
-2,0,2,-2,-4,-1,-1,-1,2025-02-24 12:32:05.078,1.2
-2,0,2,-2,-4,-1,-1,-1,2025-02-24 12:32:05.089,1.2
-2,0,2,-2,-4,-1,-1,-1,2025-02-24 12:32:05.100,1.2
-2,0,2,-2,-4,-1,-1,-1,2025-02-24 12:32:05.115,1.2
0,-2,0,0,-3,-1,-1,-1,2025-02-24 12:32:05.122,1.2
-3,-1,-1,-3,-5,0,-1,0,2025-02-24 12:32:05.133,1.2
-1,1,4,1,-3,-1,0,-1,2025-02-24 12:32:05.145,1.2
-2,-1,-3,-1,-4,-2,-3,-2,2025-02-24 12:32:05.156,1.2
-2,-1,-3,-1,-4,-2,-3,-2,2025-02-24 12:32:05.167,1.2
-2,-1,0,-1,-2,-1,0,-1,2025-02-24 12:32:05.178,1.2
-2,-1,0,-1,-2,-1,0,-1,2025-02-24 12:32:05.190,1.2
-1,-2,-2,-1,-3,-2,0,-1,2025-02-24 12:32:05.201,1.2
0,-2,-1,0,-6,0,-1,-1,2025-02-24 12:32:05.212,1.2
0,-2,-1,0,-6,0,-1,-1,2025-02-24 12:32:05.223,1.2
1,0,-1,-2,-3,-2,-2,-1,2025-02-24 12:32:05.234,1.2
1,0,-1,-2,-3,-2,-2,-1,2025-02-24 12:32:05.245,1.2
0,-3,-1,-3,-3,0,0,-2,2025-02-24 12:32:05.257,1.2
0,-3,-1,-3,-3,0,0,-2,2025-02-24 12:32:05.268,1.2
-2,0,-2,1,-3,-3,-1,-1,2025-02-24 12:32:05.279,1.2
-2,0,-2,1,-3,-3,-1,-1,2025-02-24 12:32:05.290,1.2
-1,-2,0,-1,-5,0,-2,0,2025-02-24 12:32:05.301,1.2
0,-1,-2,0,-3,1,0,-1,2025-02-24 12:32:05.316,1.2
1,3,2,0,-4,-3,-2,-1,2025-02-24 12:32:05.323,1.2
-1,-1,0,0,-4,0,-1,1,2025-02-24 12:32:05.335,1.2
-1,-1,0,0,-4,0,-1,1,2025-02-24 12:32:05.346,1.2
-1,-2,-1,-4,-3,-1,-1,-2,2025-02-24 12:32:05.357,1.2
-1,-2,-1,-4,-3,-1,-1,-2,2025-02-24 12:32:05.368,1.2
-2,-3,-3,0,-4,-2,-2,-1,2025-02-24 12:32:05.380,1.2
0,0,-1,0,-4,-1,0,-1,2025-02-24 12:32:05.391,1.2
0,0,-1,0,-4,-1,0,-1,2025-02-24 12:32:05.402,1.2
-2,-1,0,-3,-3,-2,0,-3,2025-02-24 12:32:05.414,1.2
-2,-1,0,-3,-3,-2,0,-3,2025-02-24 12:32:05.425,1.2
-2,-1,0,-3,-3,-2,0,-3,2025-02-24 12:32:05.436,1.2
-1,-3,0,0,-3,0,-1,-1,2025-02-24 12:32:05.447,1.2
-2,2,0,-1,-4,-2,-1,0,2025-02-24 12:32:05.459,1.2
-2,2,0,-1,-4,-2,-1,0,2025-02-24 12:32:05.469,1.2
-1,-2,-1,-1,-3,-2,-3,-1,2025-02-24 12:32:05.480,1.2
-1,-2,-1,-1,-3,-2,-3,-1,2025-02-24 12:32:05.492,1.2
-1,-2,-1,-1,-3,-2,-3,-1,2025-02-24 12:32:05.503,1.2
0,-1,-2,-1,-4,-2,-2,-3,2025-02-24 12:32:05.517,1.2
1,-2,0,-1,-4,-2,-2,-2,2025-02-24 12:32:05.525,1.2
1,-2,0,-1,-4,-2,-2,-2,2025-02-24 12:32:05.536,1.2
0,-3,-2,-3,-4,0,-2,-1,2025-02-24 12:32:05.547,1.2
0,-3,-2,-3,-4,0,-2,-1,2025-02-24 12:32:05.558,1.2
0,-3,-2,-3,-4,0,-2,-1,2025-02-24 12:32:05.569,1.2
-2,-1,-3,0,-6,-2,0,-1,2025-02-24 12:32:05.581,1.2
-1,-1,-2,-2,-4,-2,0,-2,2025-02-24 12:32:05.592,1.2
-1,-1,-2,-2,-4,-2,0,-2,2025-02-24 12:32:05.603,1.2
0,-2,0,-1,-4,-1,-1,-2,2025-02-24 12:32:05.614,1.2
0,-2,0,-1,-4,-1,-1,-2,2025-02-24 12:32:05.625,1.2
0,-2,0,-1,-4,-1,-1,-2,2025-02-24 12:32:05.636,1.2
-1,-3,-3,-2,-4,-1,-1,1,2025-02-24 12:32:05.648,1.2
-1,1,-1,-1,-6,-2,-1,-1,2025-02-24 12:32:05.659,1.2
-1,1,-1,-1,-6,-2,-1,-1,2025-02-24 12:32:05.670,1.2
-1,1,-1,-1,-6,-2,-1,-1,2025-02-24 12:32:05.681,1.2
-2,0,-1,-2,-5,-1,-2,1,2025-02-24 12:32:05.692,1.2
0,-1,0,0,-5,-1,-2,-1,2025-02-24 12:32:05.703,1.2
0,-1,0,0,-5,-1,-2,-1,2025-02-24 12:32:05.718,1.2
-2,-2,-2,-2,-4,-1,-1,-1,2025-02-24 12:32:05.726,1.2
-2,-2,-2,-2,-4,-1,-1,-1,2025-02-24 12:32:05.737,1.2
-2,-2,-2,-2,-4,-1,-1,-1,2025-02-24 12:32:05.748,1.2
-2,-2,-2,-2,-4,-1,-1,-1,2025-02-24 12:32:05.759,1.2
-1,0,0,0,-5,0,-1,1,2025-02-24 12:32:05.771,1.2
0,0,-1,-1,-4,1,0,-2,2025-02-24 12:32:05.782,1.2
0,0,-1,-1,-4,1,0,-2,2025-02-24 12:32:05.793,1.2
0,0,-1,-1,-4,1,0,-2,2025-02-24 12:32:05.804,1.2
0,0,-1,-1,-4,1,0,-2,2025-02-24 12:32:05.816,1.2
-1,-1,-2,-3,-4,-2,-2,-2,2025-02-24 12:32:05.827,1.2
-3,-2,0,-2,-6,-3,-1,-1,2025-02-24 12:32:05.838,1.2
-3,-2,0,-2,-6,-3,-1,-1,2025-02-24 12:32:05.849,1.2
-3,-2,0,-2,-6,-3,-1,-1,2025-02-24 12:32:05.860,1.2
-3,-2,0,-2,-6,-3,-1,-1,2025-02-24 12:32:05.871,1.2
-1,-2,-1,0,-9,0,-2,-2,2025-02-24 12:32:05.883,1.2
-1,-2,-1,0,-9,0,-2,-2,2025-02-24 12:32:05.894,1.2
-1,-2,-1,0,-9,0,-2,-2,2025-02-24 12:32:05.905,1.2
1,-1,-2,-3,-8,-1,-1,-1,2025-02-24 12:32:05.920,1.2
-1,0,-1,-3,-8,-2,-3,0,2025-02-24 12:32:05.927,1.2
-1,0,-1,-3,-8,-2,-3,0,2025-02-24 12:32:05.938,1.2
-3,-1,-2,0,-7,0,-1,-2,2025-02-24 12:32:05.950,1.2
-1,-1,-2,0,-6,-1,0,-1,2025-02-24 12:32:05.961,1.2
-1,-1,-2,0,-6,-1,0,-1,2025-02-24 12:32:05.971,1.2
-2,0,-1,-1,-8,-1,-1,0,2025-02-24 12:32:05.983,1.2
-2,0,-1,-1,-8,-1,-1,0,2025-02-24 12:32:05.994,1.2
-1,-2,0,-1,-9,0,-1,1,2025-02-24 12:32:06.005,1.2
0,-2,-1,1,-8,-1,-1,-1,2025-02-24 12:32:06.016,1.2
0,-2,-1,1,-8,-1,-1,-1,2025-02-24 12:32:06.027,1.2
-1,-3,0,-1,-7,-1,-1,-1,2025-02-24 12:32:06.039,1.2
-1,-3,0,-1,-7,-1,-1,-1,2025-02-24 12:32:06.050,1.2
-1,-3,0,-1,-7,-1,-1,-1,2025-02-24 12:32:06.061,1.2
-1,-3,0,-1,-7,-1,-1,-1,2025-02-24 12:32:06.072,1.2
-2,0,-3,-1,-9,-2,-1,0,2025-02-24 12:32:06.083,1.2
-1,-1,-1,-1,-8,-1,-1,-1,2025-02-24 12:32:06.094,1.2
-1,-1,-1,-1,-8,-1,-1,-1,2025-02-24 12:32:06.105,1.2
0,-1,-2,-2,-8,-2,-1,0,2025-02-24 12:32:06.120,1.2
-1,-2,-3,-2,-7,-2,-1,-1,2025-02-24 12:32:06.127,1.2
-1,-2,-3,-2,-7,-2,-1,-1,2025-02-24 12:32:06.139,1.2
-1,-2,-3,-2,-7,-2,-1,-1,2025-02-24 12:32:06.150,1.2
-3,-1,-1,-1,-5,-1,-2,-1,2025-02-24 12:32:06.161,1.2
-3,-1,-1,-1,-5,-1,-2,-1,2025-02-24 12:32:06.173,1.2
0,-3,0,-2,-7,0,-2,0,2025-02-24 12:32:06.185,1.2
0,-2,-1,1,-7,1,2,0,2025-02-24 12:32:06.195,1.2
0,-2,-1,1,-7,1,2,0,2025-02-24 12:32:06.206,1.2
0,-1,-2,-1,-8,-2,-1,-2,2025-02-24 12:32:06.217,1.2
0,-1,-2,-1,-8,-2,-1,-2,2025-02-24 12:32:06.229,1.2
0,0,-2,-2,-9,0,-2,-2,2025-02-24 12:32:06.240,1.2
-2,-1,0,-1,-6,-1,1,-2,2025-02-24 12:32:06.251,1.2
-2,-1,0,-1,-6,-1,1,-2,2025-02-24 12:32:06.262,1.2
0,-2,-1,-1,-6,1,-1,-1,2025-02-24 12:32:06.273,1.2
0,-2,-1,-1,-6,1,-1,-1,2025-02-24 12:32:06.284,1.2
0,-2,-1,-1,-6,1,-1,-1,2025-02-24 12:32:06.296,1.2
-1,-1,-2,-1,-7,-2,-2,-1,2025-02-24 12:32:06.307,1.2
-1,-1,0,-2,-7,-2,-2,-1,2025-02-24 12:32:06.322,1.2
-2,0,-2,0,-7,-2,0,0,2025-02-24 12:32:06.329,1.2
-2,-1,0,-1,-6,-2,-1,0,2025-02-24 12:32:06.341,1.2
-2,-1,0,-1,-6,-2,-1,0,2025-02-24 12:32:06.352,1.2
-1,-1,-2,-1,-8,-1,-1,0,2025-02-24 12:32:06.363,1.2
-1,-1,-3,0,-8,-2,0,-2,2025-02-24 12:32:06.374,1.2
-1,-1,-3,0,-8,-2,0,-2,2025-02-24 12:32:06.399,1.2
-1,-2,0,0,-8,-1,1,-2,2025-02-24 12:32:06.404,1.2
-1,-2,0,0,-8,-1,1,-2,2025-02-24 12:32:06.409,1.2
-1,-2,0,0,-8,-1,1,-2,2025-02-24 12:32:06.414,1.2
0,-1,0,-1,-8,-2,-2,-2,2025-02-24 12:32:06.424,1.2
-1,-1,-1,-1,-6,0,-2,-2,2025-02-24 12:32:06.435,1.2
-1,-1,-1,-1,-6,0,-2,-2,2025-02-24 12:32:06.447,1.2
-1,-1,-1,-1,-6,0,-2,-2,2025-02-24 12:32:06.458,1.2
-2,-1,-2,-1,-7,-1,-2,1,2025-02-24 12:32:06.469,1.2
-1,-1,-1,-3,-8,-1,-1,-2,2025-02-24 12:32:06.480,1.2
-1,-1,-1,-3,-8,-1,-1,-2,2025-02-24 12:32:06.492,1.2
-1,-1,-1,-3,-8,-1,-1,-2,2025-02-24 12:32:06.503,1.2
0,-1,-2,-2,-7,-1,-1,-2,2025-02-24 12:32:06.514,1.2
-2,0,-1,0,-6,-2,-1,0,2025-02-24 12:32:06.529,1.2
-2,0,-1,0,-6,-2,-1,0,2025-02-24 12:32:06.536,1.2
-2,0,-1,0,-6,-2,-1,0,2025-02-24 12:32:06.547,1.2
-2,-2,-3,0,-7,0,0,-2,2025-02-24 12:32:06.559,1.2
-2,-2,-3,0,-7,0,0,-2,2025-02-24 12:32:06.570,1.2
-1,0,-1,-2,-6,0,0,-3,2025-02-24 12:32:06.581,1.2
-1,0,-1,-2,-6,0,0,-3,2025-02-24 12:32:06.592,1.2
-1,0,-1,-2,-6,0,0,-3,2025-02-24 12:32:06.603,1.2
-1,0,1,-1,-8,0,-1,-2,2025-02-24 12:32:06.614,1.2
0,-2,-1,-1,-6,-2,-1,0,2025-02-24 12:32:06.626,1.2
0,-2,-1,-1,-6,-2,-1,0,2025-02-24 12:32:06.637,1.2
-1,-1,0,-1,-7,0,-1,0,2025-02-24 12:32:06.648,1.2
-1,-1,0,-1,-7,0,-1,0,2025-02-24 12:32:06.659,1.2
-1,-1,0,-1,-7,0,-1,0,2025-02-24 12:32:06.670,1.2
-1,-2,-2,0,-7,-1,1,-1,2025-02-24 12:32:06.681,1.2
-1,1,0,-2,-5,-1,0,-1,2025-02-24 12:32:06.692,1.2
-2,-1,-2,0,-6,0,-1,0,2025-02-24 12:32:06.704,1.2
0,-1,-1,0,-7,-2,-1,-2,2025-02-24 12:32:06.715,1.2
0,-1,-1,0,-7,-2,-1,-2,2025-02-24 12:32:06.730,1.2
0,-2,-2,-1,-7,0,0,-1,2025-02-24 12:32:06.737,1.2
0,-2,-2,-1,-7,0,0,-1,2025-02-24 12:32:06.748,1.2
0,-2,-1,0,-7,-2,-2,-1,2025-02-24 12:32:06.760,1.2
0,-2,-1,0,-7,-2,-2,-1,2025-02-24 12:32:06.771,1.2
0,-2,-1,0,-7,-2,-2,-1,2025-02-24 12:32:06.782,1.2
-1,0,-1,0,-6,-1,0,1,2025-02-24 12:32:06.794,1.2
-1,0,-1,0,-6,-1,0,1,2025-02-24 12:32:06.805,1.2
-2,-1,0,-1,-6,0,-1,-1,2025-02-24 12:32:06.817,1.2
0,-1,-1,-1,-8,-2,-1,1,2025-02-24 12:32:06.828,1.2
0,-1,-1,-1,-8,-2,-1,1,2025-02-24 12:32:06.840,1.2
0,-1,-1,-1,-8,-2,-1,1,2025-02-24 12:32:06.851,1.2
0,-1,-1,-1,-8,-2,-1,1,2025-02-24 12:32:06.862,1.2
0,-1,-1,-1,-8,-2,-1,1,2025-02-24 12:32:06.874,1.2
0,-1,-4,-1,-6,-1,-1,-2,2025-02-24 12:32:06.885,1.2
0,-1,-4,-1,-6,-1,-1,-2,2025-02-24 12:32:06.896,1.2
0,-1,-4,-1,-6,-1,-1,-2,2025-02-24 12:32:06.909,1.2
1,-3,-3,-2,-6,0,-1,-2,2025-02-24 12:32:06.919,1.2
1,-2,-1,-1,-4,0,0,-1,2025-02-24 12:32:06.935,1.2
1,-2,-1,-1,-4,0,0,-1,2025-02-24 12:32:06.942,1.2
1,-2,-1,-1,-4,0,0,-1,2025-02-24 12:32:06.954,1.2
-2,0,-1,0,-7,-2,-2,-1,2025-02-24 12:32:06.965,1.2
-1,0,0,-1,-6,-2,-1,-2,2025-02-24 12:32:06.977,1.2
0,-2,-2,0,-6,-1,-2,-2,2025-02-24 12:32:06.988,1.2
-2,-2,-2,0,-6,-1,-2,1,2025-02-24 12:32:06.999,1.2
-2,-2,-2,0,-6,-1,-2,1,2025-02-24 12:32:07.010,1.2
-2,-2,-2,0,-6,-1,-2,1,2025-02-24 12:32:07.021,1.2
-2,-2,-2,0,-6,-1,-2,1,2025-02-24 12:32:07.033,1.2
0,-1,0,-2,-6,-1,-1,0,2025-02-24 12:32:07.044,1.2
0,-1,0,-2,-6,-1,-1,0,2025-02-24 12:32:07.055,1.2
0,-1,0,-2,-6,-1,-1,0,2025-02-24 12:32:07.066,1.2
-2,-2,-1,0,-6,0,-2,0,2025-02-24 12:32:07.078,1.2
-1,-1,0,-2,-7,-1,0,-1,2025-02-24 12:32:07.089,1.2
-2,-1,-1,-1,-5,-2,-1,-1,2025-02-24 12:32:07.100,1.2
-1,0,0,-1,-6,0,-2,0,2025-02-24 12:32:07.111,1.2
-1,-1,0,-2,-7,-1,0,-2,2025-02-24 12:32:07.123,1.2
-1,-1,0,-2,-7,-1,0,-2,2025-02-24 12:32:07.137,1.2
-1,-2,-2,-1,-6,0,-2,-2,2025-02-24 12:32:07.145,1.2
-1,-2,-2,-1,-6,0,-2,-2,2025-02-24 12:32:07.156,1.2
-2,0,-2,-2,-8,-1,-1,-2,2025-02-24 12:32:07.167,1.2
-1,-1,-1,-2,-6,0,-1,0,2025-02-24 12:32:07.178,1.2
0,0,0,2,-7,-1,-2,-2,2025-02-24 12:32:07.189,1.2
0,0,0,2,-7,-1,-2,-2,2025-02-24 12:32:07.200,1.2
1,-1,-1,-2,-6,-2,-1,0,2025-02-24 12:32:07.212,1.2
-1,-2,0,-1,-4,-1,-2,-1,2025-02-24 12:32:07.223,1.2
-1,-1,-2,-1,-6,-1,-1,-1,2025-02-24 12:32:07.234,1.2
-1,-1,0,1,-6,-1,-1,-1,2025-02-24 12:32:07.245,1.2
0,-2,-1,-1,-6,0,-1,-2,2025-02-24 12:32:07.256,1.2
-3,-1,-1,1,-7,-2,-4,-2,2025-02-24 12:32:07.268,1.2
-1,0,-1,0,-7,-1,-2,-1,2025-02-24 12:32:07.278,1.2
-1,-1,-2,-1,-6,0,0,-2,2025-02-24 12:32:07.289,1.2
0,-1,-2,-2,-5,-1,-1,-1,2025-02-24 12:32:07.301,1.2
0,-1,-2,-2,-5,-1,-1,-1,2025-02-24 12:32:07.312,1.2
0,-1,-2,-2,-7,-1,-1,0,2025-02-24 12:32:07.323,1.2
0,-1,-2,-2,-7,-1,-1,0,2025-02-24 12:32:07.338,1.2
-1,-1,-1,0,-6,-2,-1,-2,2025-02-24 12:32:07.345,1.2
-1,-1,-1,0,-6,-2,-1,-2,2025-02-24 12:32:07.357,1.2
-1,-4,-1,-3,-6,0,-1,-2,2025-02-24 12:32:07.368,1.2
-1,-1,-2,-2,-5,-1,0,1,2025-02-24 12:32:07.379,1.2
1,-2,0,-2,-5,-2,0,-1,2025-02-24 12:32:07.390,1.2
-2,0,-2,-1,-7,-1,-1,-3,2025-02-24 12:32:07.401,1.2
0,-2,-2,0,-7,0,-3,-2,2025-02-24 12:32:07.413,1.2
0,1,-3,-1,-4,1,-1,-2,2025-02-24 12:32:07.424,1.2
-2,-3,-2,0,-6,-2,-2,-2,2025-02-24 12:32:07.435,1.2
-2,-3,-1,0,-6,-2,-2,-2,2025-02-24 12:32:07.446,1.2
-2,-3,-1,0,-6,-2,-2,-2,2025-02-24 12:32:07.457,1.2
-1,-2,1,0,-6,-2,0,0,2025-02-24 12:32:07.468,1.2
-1,-2,1,0,-6,-2,0,0,2025-02-24 12:32:07.480,1.2
-1,-1,-2,1,-6,-1,-1,-1,2025-02-24 12:32:07.491,1.2
-1,-1,-2,1,-6,-1,-1,-1,2025-02-24 12:32:07.502,1.2
-1,-1,-2,1,-6,-1,-1,-1,2025-02-24 12:32:07.513,1.2
-1,-1,-2,1,-6,-1,-1,-1,2025-02-24 12:32:07.525,1.2
-1,-1,0,-1,-6,-2,0,-1,2025-02-24 12:32:07.540,1.2
-2,-1,0,-1,-4,0,1,0,2025-02-24 12:32:07.547,1.2
-2,0,-1,-1,-8,-1,-1,-1,2025-02-24 12:32:07.558,1.2
-2,0,-1,-1,-8,-1,-1,-1,2025-02-24 12:32:07.568,1.2
-2,-3,-3,-2,-5,-1,-1,-1,2025-02-24 12:32:07.580,1.2
-2,-1,-1,0,-6,-2,-1,-1,2025-02-24 12:32:07.592,1.2
0,0,1,-1,-4,0,-1,0,2025-02-24 12:32:07.602,1.2
0,0,1,-1,-4,0,-1,0,2025-02-24 12:32:07.614,1.2
-2,0,-1,2,-6,0,-1,-1,2025-02-24 12:32:07.625,1.2
-2,0,-1,2,-6,0,-1,-1,2025-02-24 12:32:07.636,1.2
-1,0,-2,-3,-7,-2,0,-1,2025-02-24 12:32:07.647,1.2
-1,0,-2,-3,-7,-2,0,-1,2025-02-24 12:32:07.659,1.2
0,-2,-2,-2,-5,-1,0,-1,2025-02-24 12:32:07.670,1.2
0,-2,-2,-2,-5,-1,0,-1,2025-02-24 12:32:07.681,1.2
0,-2,-2,-2,-5,-1,0,-1,2025-02-24 12:32:07.692,1.2
0,-2,-2,-2,-5,-1,0,-1,2025-02-24 12:32:07.703,1.2
-2,-2,-1,0,-5,-2,-3,-1,2025-02-24 12:32:07.714,1.2
-2,-2,-1,0,-5,-2,-3,-1,2025-02-24 12:32:07.725,1.2
-2,-1,0,1,-6,-2,-3,-1,2025-02-24 12:32:07.741,0.2
0,-1,-1,0,-6,0,-2,-1,2025-02-24 12:32:07.748,0.2
0,-1,-1,0,-6,0,-2,-1,2025-02-24 12:32:07.759,0.2
0,-1,-1,0,-6,0,-2,-1,2025-02-24 12:32:07.770,0.2
-2,-2,-2,-2,-6,1,-1,0,2025-02-24 12:32:07.781,0.2
-2,-2,-2,-2,-6,1,-1,0,2025-02-24 12:32:07.792,0.2
-2,-2,-2,-2,-6,1,-1,0,2025-02-24 12:32:07.803,0.2
-2,-2,-2,-2,-6,1,-1,0,2025-02-24 12:32:07.814,0.2
-1,-2,-3,-2,-6,-3,0,-3,2025-02-24 12:32:07.826,0.2
-1,-2,-3,-2,-6,-3,0,-3,2025-02-24 12:32:07.837,0.2
-1,-2,-3,-2,-6,-3,0,-3,2025-02-24 12:32:07.848,0.2
-1,-2,-3,-2,-6,-3,0,-3,2025-02-24 12:32:07.859,0.2
-1,-2,-3,-2,-6,-3,0,-3,2025-02-24 12:32:07.870,0.2
0,-1,-2,-2,-5,0,0,-2,2025-02-24 12:32:07.882,0.2
0,0,0,-2,-7,-2,-1,-1,2025-02-24 12:32:07.894,0.2
-3,-1,-2,0,-7,-1,-3,-1,2025-02-24 12:32:07.905,0.2
-3,1,-1,0,-7,-2,-1,-1,2025-02-24 12:32:07.916,0.2
-3,1,-1,0,-7,-2,-1,-1,2025-02-24 12:32:07.927,0.2
-3,1,-1,0,-7,-2,-1,-1,2025-02-24 12:32:07.942,0.2
0,-1,-1,-1,-7,-2,-2,-2,2025-02-24 12:32:07.948,0.2
0,-1,-1,-1,-7,-2,-2,-2,2025-02-24 12:32:07.960,0.2
0,-1,-1,-1,-7,-2,-2,-2,2025-02-24 12:32:07.971,0.2
-1,-2,0,0,-6,-1,-1,-1,2025-02-24 12:32:07.982,0.2
0,-1,-2,-2,-7,1,0,-2,2025-02-24 12:32:07.993,0.2
0,-1,-2,-2,-7,1,0,-2,2025-02-24 12:32:08.005,0.2
-2,-1,-1,-3,-6,-1,0,-1,2025-02-24 12:32:08.016,0.2
-2,-1,-1,-3,-6,-1,0,-1,2025-02-24 12:32:08.027,0.2
-2,0,0,-1,-7,-2,-1,0,2025-02-24 12:32:08.038,0.2
-2,-1,0,0,-5,-1,-1,-2,2025-02-24 12:32:08.050,0.2
-2,-2,-1,-3,-5,-2,0,-2,2025-02-24 12:32:08.061,0.2
0,0,-1,0,-6,-1,-2,0,2025-02-24 12:32:08.072,0.2
-2,3,-1,-1,-6,-1,-2,-1,2025-02-24 12:32:08.083,0.2
-2,3,-1,-1,-6,-1,-2,-1,2025-02-24 12:32:08.094,0.2
-1,-3,-2,-1,-6,-1,-1,-2,2025-02-24 12:32:08.105,0.2
-1,-3,-2,-1,-6,-1,-1,-2,2025-02-24 12:32:08.117,0.2
-2,-1,-3,-1,-7,-1,0,-2,2025-02-24 12:32:08.128,0.2
-2,-1,-3,-1,-7,-1,0,-2,2025-02-24 12:32:08.143,0.2
-2,1,-1,-3,-6,-1,-3,-2,2025-02-24 12:32:08.150,0.2
-2,1,-1,-3,-6,-1,-3,-2,2025-02-24 12:32:08.161,0.2
-1,-1,-1,-2,-8,-1,-1,-2,2025-02-24 12:32:08.172,0.2
1,-1,-1,0,-7,-2,-1,-1,2025-02-24 12:32:08.184,0.2
1,-1,-1,0,-7,-2,-1,-1,2025-02-24 12:32:08.197,0.2
-2,-1,-1,0,-4,-1,0,-1,2025-02-24 12:32:08.206,0.2
0,-3,-2,-1,-6,-1,1,-2,2025-02-24 12:32:08.217,0.2
0,-1,-2,0,-6,0,-1,-2,2025-02-24 12:32:08.228,0.2
0,-1,-2,0,-6,0,-1,-2,2025-02-24 12:32:08.239,0.2
-1,-1,0,-2,-7,-1,-3,-1,2025-02-24 12:32:08.251,0.2
-1,0,-3,1,-6,1,-1,1,2025-02-24 12:32:08.262,0.2
-1,0,-3,1,-6,1,-1,1,2025-02-24 12:32:08.273,0.2
-2,-1,-1,-3,-6,-1,-2,-2,2025-02-24 12:32:08.284,0.2
-2,-1,-1,-3,-6,-1,-2,-2,2025-02-24 12:32:08.295,0.2
-1,-1,-3,-1,-6,-2,-2,0,2025-02-24 12:32:08.306,0.2
-1,-1,-3,-1,-6,-2,-2,0,2025-02-24 12:32:08.317,0.2
-2,0,-1,-2,-4,-2,-1,0,2025-02-24 12:32:08.329,0.2
-6,-2,-2,0,-7,-3,-2,-2,2025-02-24 12:32:08.345,0.2
-2,-3,-2,-2,-5,-2,0,-1,2025-02-24 12:32:08.351,0.2
-1,0,-1,-1,-5,-2,-1,0,2025-02-24 12:32:08.362,0.2
-1,0,-1,-1,-5,-2,-1,0,2025-02-24 12:32:08.373,0.2
-1,-1,0,-1,-6,-1,0,-1,2025-02-24 12:32:08.384,0.2
1,-2,-2,0,-5,-2,-1,-1,2025-02-24 12:32:08.395,0.2
-3,-1,-2,-1,-6,1,-1,-1,2025-02-24 12:32:08.407,0.2
0,-2,0,-1,-6,-1,0,0,2025-02-24 12:32:08.418,0.2
0,0,-2,0,-6,-1,-1,-1,2025-02-24 12:32:08.429,0.2
0,0,-2,0,-6,-1,-1,-1,2025-02-24 12:32:08.440,0.2
-1,-1,-2,-2,-6,-2,-1,-1,2025-02-24 12:32:08.451,0.2
-2,1,0,-1,-6,-2,-1,-2,2025-02-24 12:32:08.462,0.2
-2,1,0,-1,-6,-2,-1,-2,2025-02-24 12:32:08.474,0.2
-2,1,0,-1,-6,-2,-1,-2,2025-02-24 12:32:08.485,0.2
-1,-1,-2,0,-5,0,0,1,2025-02-24 12:32:08.496,0.2
-1,0,-2,-1,-4,0,0,1,2025-02-24 12:32:08.507,0.2
-1,-2,-3,-2,-6,-2,-2,-1,2025-02-24 12:32:08.518,0.2
0,1,-2,0,-5,-2,-1,-1,2025-02-24 12:32:08.530,0.2
-1,0,-2,0,-5,-1,-1,-1,2025-02-24 12:32:08.545,0.2
-1,0,-2,0,-5,-1,-1,-1,2025-02-24 12:32:08.551,0.2
-3,-2,-16,0,-6,-2,-1,0,2025-02-24 12:32:08.563,0.2
-1,-3,-10,-3,-4,0,-2,-1,2025-02-24 12:32:08.574,0.2
-1,1,7,3,-7,-1,-1,-2,2025-02-24 12:32:08.586,0.2
-1,1,7,3,-7,-1,-1,-2,2025-02-24 12:32:08.596,0.2
-1,1,7,3,-7,-1,-1,-2,2025-02-24 12:32:08.608,0.2
-1,1,7,3,-7,-1,-1,-2,2025-02-24 12:32:08.618,0.2
-1,1,7,3,-7,-1,-1,-2,2025-02-24 12:32:08.630,0.2
-1,-2,0,-3,-4,0,-2,-3,2025-02-24 12:32:08.641,0.2
0,0,-1,-1,-7,-1,-1,0,2025-02-24 12:32:08.652,0.2
0,0,-1,-1,-7,-1,-1,0,2025-02-24 12:32:08.663,0.2
0,0,-1,-1,-7,-1,-1,0,2025-02-24 12:32:08.675,0.2
-1,-1,-5,0,-5,-2,-1,0,2025-02-24 12:32:08.687,0.2
-1,-1,-5,0,-5,-2,-1,0,2025-02-24 12:32:08.697,0.2
-1,-1,-3,0,-6,-1,-1,-1,2025-02-24 12:32:08.709,0.2
0,0,-2,-1,-5,0,-1,1,2025-02-24 12:32:08.720,0.2
0,0,-2,-1,-5,0,-1,1,2025-02-24 12:32:08.731,0.2
0,0,-2,-1,-5,0,-1,1,2025-02-24 12:32:08.746,0.2
0,0,-2,-1,-5,0,-1,1,2025-02-24 12:32:08.753,0.2
0,0,-2,-1,-5,0,-1,1,2025-02-24 12:32:08.765,0.2
-1,-1,-2,-1,-5,-2,0,0,2025-02-24 12:32:08.776,0.2
-1,-1,-2,-1,-5,-2,0,0,2025-02-24 12:32:08.786,0.2
-1,-1,-2,-1,-5,-2,0,0,2025-02-24 12:32:08.798,0.2
-1,0,-2,0,-6,-1,1,-3,2025-02-24 12:32:08.810,0.2
-1,-1,-3,-2,-4,0,-1,-1,2025-02-24 12:32:08.820,0.2
-1,-1,-3,-2,-4,0,-1,-1,2025-02-24 12:32:08.832,0.2
-1,-1,-3,-2,-4,0,-1,-1,2025-02-24 12:32:08.843,0.2
-1,-1,-3,-2,-4,0,-1,-1,2025-02-24 12:32:08.854,0.2
0,-1,0,-2,-5,0,-2,-1,2025-02-24 12:32:08.865,0.2
-1,-1,-2,-2,-4,-2,-2,-1,2025-02-24 12:32:08.876,0.2
-1,-1,-2,-2,-4,-2,-2,-1,2025-02-24 12:32:08.887,0.2
-1,-1,-2,-2,-4,-2,-2,-1,2025-02-24 12:32:08.898,0.2
-1,0,-1,-2,-5,-2,-1,0,2025-02-24 12:32:08.909,0.2
-1,0,-1,-2,-5,-2,-1,0,2025-02-24 12:32:08.921,0.2
-1,-1,0,0,-5,-1,0,0,2025-02-24 12:32:08.932,0.2
-1,-2,-3,1,-5,-2,-3,0,2025-02-24 12:32:08.947,0.2
-1,-2,-3,1,-5,-2,-3,0,2025-02-24 12:32:08.954,0.2
-1,-2,-3,1,-5,-2,-3,0,2025-02-24 12:32:08.965,0.2
-1,-2,-3,1,-5,-2,-3,0,2025-02-24 12:32:08.976,0.2
0,-1,0,-1,-3,-3,-1,-2,2025-02-24 12:32:08.987,0.2
0,-1,0,-1,-3,-3,-1,-2,2025-02-24 12:32:08.998,0.2
-2,-3,0,-2,-5,-3,-2,-2,2025-02-24 12:32:09.010,0.2
-2,-3,0,-2,-5,-3,-2,-2,2025-02-24 12:32:09.021,0.2
-2,-3,0,-2,-5,-3,-2,-2,2025-02-24 12:32:09.032,0.2
-2,-3,0,-2,-5,-3,-2,-2,2025-02-24 12:32:09.043,0.2
-1,0,0,-1,-4,-1,0,-1,2025-02-24 12:32:09.054,0.2
0,0,0,-1,-4,0,0,0,2025-02-24 12:32:09.066,0.2
0,0,0,-1,-4,0,0,0,2025-02-24 12:32:09.077,0.2
0,-2,-2,0,-4,0,-2,-1,2025-02-24 12:32:09.088,0.2
0,-2,-2,0,-4,0,-2,-1,2025-02-24 12:32:09.100,0.2
-1,-1,-2,-3,-4,-2,1,-1,2025-02-24 12:32:09.111,0.2
-1,-1,-2,-3,-4,-2,1,-1,2025-02-24 12:32:09.122,0.2
-1,-1,-2,-3,-4,-2,1,-1,2025-02-24 12:32:09.133,0.2
-1,-1,-2,-3,-4,-2,1,-1,2025-02-24 12:32:09.148,0.2
-1,-1,-2,-3,-4,-2,1,-1,2025-02-24 12:32:09.156,0.2
0,-1,-3,0,-2,-2,-2,-1,2025-02-24 12:32:09.166,0.2
-1,0,0,-1,-4,-1,-1,0,2025-02-24 12:32:09.177,0.2
-1,0,0,-1,-4,-1,-1,0,2025-02-24 12:32:09.189,0.2
-1,-4,-3,-2,-4,0,0,-2,2025-02-24 12:32:09.200,0.2
-1,-3,0,0,-6,-1,-1,-1,2025-02-24 12:32:09.211,0.2
-1,-1,1,0,-5,-2,-1,-2,2025-02-24 12:32:09.222,0.2
-1,-1,1,0,-5,-2,-1,-2,2025-02-24 12:32:09.233,0.2
0,-1,-2,-1,-4,-2,0,-2,2025-02-24 12:32:09.245,0.2
0,-1,-2,-1,-4,-2,0,-2,2025-02-24 12:32:09.256,0.2
-3,-1,-1,-1,-4,-1,-1,0,2025-02-24 12:32:09.267,0.2
0,0,-1,-2,-3,0,-2,-1,2025-02-24 12:32:09.278,0.2
0,-1,-2,0,-5,-1,-2,0,2025-02-24 12:32:09.289,0.2
0,-1,-2,0,-5,-1,-2,0,2025-02-24 12:32:09.300,0.2
1,-1,-2,-2,-3,-1,-1,0,2025-02-24 12:32:09.312,0.2
1,0,1,0,-5,-1,-1,-1,2025-02-24 12:32:09.323,0.2
-1,-2,-1,-1,-3,-1,-3,-1,2025-02-24 12:32:09.334,0.2
-3,-4,-1,-1,-5,-1,-1,-1,2025-02-24 12:32:09.349,0.2
-3,-4,-1,-1,-5,-1,-1,-1,2025-02-24 12:32:09.356,0.2
-1,0,-1,-1,-5,-2,-1,-1,2025-02-24 12:32:09.368,0.2
-2,-1,-3,-1,-4,-2,-2,-1,2025-02-24 12:32:09.379,0.2
0,-1,-3,-1,-3,-1,-1,-1,2025-02-24 12:32:09.389,0.2
0,-1,0,0,-3,-2,-4,1,2025-02-24 12:32:09.400,0.2
-2,-1,-1,0,-4,1,-1,-1,2025-02-24 12:32:09.412,0.2
-2,-4,0,-3,-3,-1,0,-1,2025-02-24 12:32:09.423,0.2
1,1,0,-2,-4,-1,-1,-2,2025-02-24 12:32:09.434,0.2
-2,0,-1,0,-4,0,-2,-1,2025-02-24 12:32:09.445,0.2
-2,0,-1,0,-4,0,-2,-1,2025-02-24 12:32:09.457,0.2
-1,-4,1,-3,-4,-3,-1,-1,2025-02-24 12:32:09.468,0.2
-1,-4,1,-3,-4,-3,-1,-1,2025-02-24 12:32:09.479,0.2
0,-2,-3,0,-5,0,-1,-2,2025-02-24 12:32:09.490,0.2
0,-2,-2,-3,-5,0,0,-1,2025-02-24 12:32:09.501,0.2
-1,0,-2,-1,-5,0,-1,-2,2025-02-24 12:32:09.513,0.2
-2,-2,-1,-1,-4,-2,0,1,2025-02-24 12:32:09.524,0.2
-2,-2,-1,-1,-4,-2,0,1,2025-02-24 12:32:09.536,0.2
-1,0,0,0,-5,-1,1,-2,2025-02-24 12:32:09.551,0.2
-1,-3,0,-2,-4,-1,-3,0,2025-02-24 12:32:09.558,0.2
-1,0,-4,0,-3,-1,-1,0,2025-02-24 12:32:09.569,0.2
-1,0,-4,0,-3,-1,-1,0,2025-02-24 12:32:09.579,0.2
-1,0,-4,0,-3,-1,-1,0,2025-02-24 12:32:09.591,0.2
-1,0,-4,0,-3,-1,-1,0,2025-02-24 12:32:09.602,0.2
-1,1,-2,-2,-3,-2,-1,-1,2025-02-24 12:32:09.613,0.2
0,0,-1,0,-4,-1,-2,-1,2025-02-24 12:32:09.624,0.2
0,0,-1,0,-4,-1,-2,-1,2025-02-24 12:32:09.636,0.2
0,0,-1,0,-4,-1,-2,-1,2025-02-24 12:32:09.647,0.2
0,0,-1,0,-4,-1,-2,-1,2025-02-24 12:32:09.658,0.2
0,0,-1,0,-4,-1,-2,-1,2025-02-24 12:32:09.669,0.2
-1,-1,-1,1,-1,-2,0,-1,2025-02-24 12:32:09.680,0.2
-1,-1,-2,0,-4,0,0,-1,2025-02-24 12:32:09.692,0.2
-1,-1,-2,0,-4,0,0,-1,2025-02-24 12:32:09.703,0.2
-1,-1,-2,0,-4,0,0,-1,2025-02-24 12:32:09.714,0.2
